Timestamp,Raw_EMG1,Raw_EMG2,IC1,IC2,Label
0.0,224,170,0.5014565991762129,0.08934459962488378,2
0.0031446540880503146,224,169,-1.1717379528331873,-0.23741666918063567,2
0.006289308176100629,223,169,-1.83226478548773,1.2721000065600516,2
0.009433962264150945,223,171,1.5141243185310704,1.9256225441710906,2
0.012578616352201259,224,170,0.5014565991762129,0.08934459962488378,2
0.015723270440251572,224,170,0.5014565991762129,0.08934459962488378,2
0.01886792452830189,225,170,1.1619834318307554,-1.4201720761158036,2
0.022012578616352203,224,169,-1.1717379528331873,-0.23741666918063567,2
0.025157232704402517,224,169,-1.1717379528331873,-0.23741666918063567,2
0.02830188679245283,223,170,-0.15907023347832971,1.598861275365571,2
0.031446540880503145,225,170,1.1619834318307554,-1.4201720761158036,2
0.03459119496855346,224,169,-1.1717379528331873,-0.23741666918063567,2
0.03773584905660378,225,170,1.1619834318307554,-1.4201720761158036,2
0.04088050314465409,224,170,0.5014565991762129,0.08934459962488378,2
0.04402515723270441,224,169,-1.1717379528331873,-0.23741666918063567,2
0.04716981132075472,224,170,0.5014565991762129,0.08934459962488378,2
0.050314465408805034,224,169,-1.1717379528331873,-0.23741666918063567,2
0.05345911949685535,223,171,1.5141243185310704,1.9256225441710906,2
0.05660377358490566,223,171,1.5141243185310704,1.9256225441710906,2
0.059748427672955975,223,171,1.5141243185310704,1.9256225441710906,2
0.06289308176100629,225,170,1.1619834318307554,-1.4201720761158036,2
0.0660377358490566,225,169,-0.5112111201786447,-1.7469333449213231,2
0.06918238993710692,224,169,-1.1717379528331873,-0.23741666918063567,2
0.07232704402515723,224,169,-1.1717379528331873,-0.23741666918063567,2
0.07547169811320756,224,169,-1.1717379528331873,-0.23741666918063567,2
0.07861635220125787,223,171,1.5141243185310704,1.9256225441710906,2
0.08176100628930819,225,170,1.1619834318307554,-1.4201720761158036,2
0.0849056603773585,224,170,0.5014565991762129,0.08934459962488378,2
0.08805031446540881,224,169,-1.1717379528331873,-0.23741666918063567,2
0.09119496855345913,223,170,-0.15907023347832971,1.598861275365571,2
0.09433962264150944,223,171,1.5141243185310704,1.9256225441710906,2
0.09748427672955975,225,170,1.1619834318307554,-1.4201720761158036,2
0.10062893081761007,224,169,-1.1717379528331873,-0.23741666918063567,2
0.10377358490566038,224,169,-1.1717379528331873,-0.23741666918063567,2
0.1069182389937107,225,170,1.1619834318307554,-1.4201720761158036,2
0.11006289308176101,224,169,-1.1717379528331873,-0.23741666918063567,2
0.11320754716981132,224,169,-1.1717379528331873,-0.23741666918063567,2
0.11635220125786164,224,169,-1.1717379528331873,-0.23741666918063567,2
0.11949685534591195,224,170,0.5014565991762129,0.08934459962488378,2
0.12264150943396226,224,170,0.5014565991762129,0.08934459962488378,2
0.12578616352201258,224,169,-1.1717379528331873,-0.23741666918063567,2
0.1289308176100629,225,170,1.1619834318307554,-1.4201720761158036,2
0.1320754716981132,224,170,0.5014565991762129,0.08934459962488378,2
0.13522012578616352,224,169,-1.1717379528331873,-0.23741666918063567,2
0.13836477987421383,223,171,1.5141243185310704,1.9256225441710906,2
0.14150943396226415,223,171,1.5141243185310704,1.9256225441710906,2
0.14465408805031446,224,170,0.5014565991762129,0.08934459962488378,2
0.14779874213836477,224,169,-1.1717379528331873,-0.23741666918063567,2
0.15094339622641512,225,170,1.1619834318307554,-1.4201720761158036,2
0.15408805031446543,224,169,-1.1717379528331873,-0.23741666918063567,2
0.15723270440251574,224,169,-1.1717379528331873,-0.23741666918063567,2
0.16037735849056606,224,169,-1.1717379528331873,-0.23741666918063567,2
0.16352201257861637,223,170,-0.15907023347832971,1.598861275365571,2
0.16666666666666669,224,169,-1.1717379528331873,-0.23741666918063567,2
0.169811320754717,223,171,1.5141243185310704,1.9256225441710906,2
0.1729559748427673,225,170,1.1619834318307554,-1.4201720761158036,2
0.17610062893081763,224,170,0.5014565991762129,0.08934459962488378,2
0.17924528301886794,224,169,-1.1717379528331873,-0.23741666918063567,2
0.18238993710691825,223,171,1.5141243185310704,1.9256225441710906,2
0.18553459119496857,224,170,0.5014565991762129,0.08934459962488378,2
0.18867924528301888,224,169,-1.1717379528331873,-0.23741666918063567,2
0.1918238993710692,225,170,1.1619834318307554,-1.4201720761158036,2
0.1949685534591195,225,170,1.1619834318307554,-1.4201720761158036,2
0.19811320754716982,225,169,-0.5112111201786447,-1.7469333449213231,2
0.20125786163522014,224,169,-1.1717379528331873,-0.23741666918063567,2
0.20440251572327045,224,170,0.5014565991762129,0.08934459962488378,2
0.20754716981132076,223,171,1.5141243185310704,1.9256225441710906,2
0.21069182389937108,225,170,1.1619834318307554,-1.4201720761158036,2
0.2138364779874214,224,170,0.5014565991762129,0.08934459962488378,2
0.2169811320754717,224,170,0.5014565991762129,0.08934459962488378,2
0.22012578616352202,224,169,-1.1717379528331873,-0.23741666918063567,2
0.22327044025157233,223,170,-0.15907023347832971,1.598861275365571,2
0.22641509433962265,223,171,1.5141243185310704,1.9256225441710906,2
0.22955974842767296,224,170,0.5014565991762129,0.08934459962488378,2
0.23270440251572327,224,169,-1.1717379528331873,-0.23741666918063567,2
0.2358490566037736,224,169,-1.1717379528331873,-0.23741666918063567,2
0.2389937106918239,224,170,0.5014565991762129,0.08934459962488378,2
0.24213836477987422,224,169,-1.1717379528331873,-0.23741666918063567,2
0.24528301886792453,223,170,-0.15907023347832971,1.598861275365571,2
0.24842767295597484,223,171,1.5141243185310704,1.9256225441710906,2
0.25157232704402516,223,171,1.5141243185310704,1.9256225441710906,2
0.25471698113207547,223,171,1.5141243185310704,1.9256225441710906,2
0.2578616352201258,225,170,1.1619834318307554,-1.4201720761158036,2
0.2610062893081761,224,170,0.5014565991762129,0.08934459962488378,2
0.2641509433962264,224,170,0.5014565991762129,0.08934459962488378,2
0.2672955974842767,224,169,-1.1717379528331873,-0.23741666918063567,2
0.27044025157232704,223,171,1.5141243185310704,1.9256225441710906,2
0.27358490566037735,223,171,1.5141243185310704,1.9256225441710906,2
0.27672955974842767,223,171,1.5141243185310704,1.9256225441710906,2
0.279874213836478,225,170,1.1619834318307554,-1.4201720761158036,2
0.2830188679245283,225,170,1.1619834318307554,-1.4201720761158036,2
0.2861635220125786,224,169,-1.1717379528331873,-0.23741666918063567,2
0.2893081761006289,224,169,-1.1717379528331873,-0.23741666918063567,2
0.29245283018867924,224,169,-1.1717379528331873,-0.23741666918063567,2
0.29559748427672955,223,170,-0.15907023347832971,1.598861275365571,2
0.29874213836477986,225,170,1.1619834318307554,-1.4201720761158036,2
0.30188679245283023,224,170,0.5014565991762129,0.08934459962488378,2
0.30503144654088055,225,170,1.1619834318307554,-1.4201720761158036,2
0.30817610062893086,224,169,-1.1717379528331873,-0.23741666918063567,2
0.3113207547169812,224,169,-1.1717379528331873,-0.23741666918063567,2
0.3144654088050315,224,169,-1.1717379528331873,-0.23741666918063567,2
0.3176100628930818,223,171,1.5141243185310704,1.9256225441710906,2
0.3207547169811321,224,170,0.5014565991762129,0.08934459962488378,2
0.32389937106918243,224,170,0.5014565991762129,0.08934459962488378,2
0.32704402515723274,224,170,0.5014565991762129,0.08934459962488378,2
0.33018867924528306,224,170,0.5014565991762129,0.08934459962488378,2
0.33333333333333337,223,170,-0.15907023347832971,1.598861275365571,2
0.3364779874213837,224,170,0.5014565991762129,0.08934459962488378,2
0.339622641509434,224,169,-1.1717379528331873,-0.23741666918063567,2
0.3427672955974843,224,170,0.5014565991762129,0.08934459962488378,2
0.3459119496855346,224,170,0.5014565991762129,0.08934459962488378,2
0.34905660377358494,225,170,1.1619834318307554,-1.4201720761158036,2
0.35220125786163525,224,169,-1.1717379528331873,-0.23741666918063567,2
0.35534591194968557,224,169,-1.1717379528331873,-0.23741666918063567,2
0.3584905660377359,223,170,-0.15907023347832971,1.598861275365571,2
0.3616352201257862,224,170,0.5014565991762129,0.08934459962488378,2
0.3647798742138365,224,170,0.5014565991762129,0.08934459962488378,2
0.3679245283018868,224,170,0.5014565991762129,0.08934459962488378,2
0.37106918238993714,225,170,1.1619834318307554,-1.4201720761158036,2
0.37421383647798745,224,169,-1.1717379528331873,-0.23741666918063567,2
0.37735849056603776,224,169,-1.1717379528331873,-0.23741666918063567,2
0.3805031446540881,224,169,-1.1717379528331873,-0.23741666918063567,2
0.3836477987421384,223,171,1.5141243185310704,1.9256225441710906,2
0.3867924528301887,224,170,0.5014565991762129,0.08934459962488378,2
0.389937106918239,224,170,0.5014565991762129,0.08934459962488378,2
0.39308176100628933,224,170,0.5014565991762129,0.08934459962488378,2
0.39622641509433965,224,169,-1.1717379528331873,-0.23741666918063567,2
0.39937106918238996,224,169,-1.1717379528331873,-0.23741666918063567,2
0.4025157232704403,223,170,-0.15907023347832971,1.598861275365571,2
0.4056603773584906,223,171,1.5141243185310704,1.9256225441710906,2
0.4088050314465409,224,170,0.5014565991762129,0.08934459962488378,2
0.4119496855345912,224,170,0.5014565991762129,0.08934459962488378,2
0.41509433962264153,224,169,-1.1717379528331873,-0.23741666918063567,2
0.41823899371069184,224,169,-1.1717379528331873,-0.23741666918063567,2
0.42138364779874216,223,170,-0.15907023347832971,1.598861275365571,2
0.42452830188679247,224,170,0.5014565991762129,0.08934459962488378,2
0.4276729559748428,224,169,-1.1717379528331873,-0.23741666918063567,2
0.4308176100628931,225,170,1.1619834318307554,-1.4201720761158036,2
0.4339622641509434,224,170,0.5014565991762129,0.08934459962488378,2
0.4371069182389937,224,169,-1.1717379528331873,-0.23741666918063567,2
0.44025157232704404,224,169,-1.1717379528331873,-0.23741666918063567,2
0.44339622641509435,224,169,-1.1717379528331873,-0.23741666918063567,2
0.44654088050314467,223,170,-0.15907023347832971,1.598861275365571,2
0.449685534591195,224,170,0.5014565991762129,0.08934459962488378,2
0.4528301886792453,224,170,0.5014565991762129,0.08934459962488378,2
0.4559748427672956,224,169,-1.1717379528331873,-0.23741666918063567,2
0.4591194968553459,224,169,-1.1717379528331873,-0.23741666918063567,2
0.46226415094339623,225,170,1.1619834318307554,-1.4201720761158036,2
0.46540880503144655,224,169,-1.1717379528331873,-0.23741666918063567,2
0.46855345911949686,224,169,-1.1717379528331873,-0.23741666918063567,2
0.4716981132075472,223,171,1.5141243185310704,1.9256225441710906,2
0.4748427672955975,225,170,1.1619834318307554,-1.4201720761158036,2
0.4779874213836478,224,170,0.5014565991762129,0.08934459962488378,2
0.4811320754716981,224,170,0.5014565991762129,0.08934459962488378,2
0.48427672955974843,224,169,-1.1717379528331873,-0.23741666918063567,2
0.48742138364779874,223,170,-0.15907023347832971,1.598861275365571,2
0.49056603773584906,224,170,0.5014565991762129,0.08934459962488378,2
0.4937106918238994,224,169,-1.1717379528331873,-0.23741666918063567,2
0.4968553459119497,225,170,1.1619834318307554,-1.4201720761158036,2
0.5,224,170,0.5014565991762129,0.08934459962488378,2
0.5031446540880503,224,169,-1.1717379528331873,-0.23741666918063567,2
0.5062893081761006,225,170,1.1619834318307554,-1.4201720761158036,2
0.5094339622641509,224,169,-1.1717379528331873,-0.23741666918063567,2
0.5125786163522013,224,169,-1.1717379528331873,-0.23741666918063567,2
0.5157232704402516,224,170,0.5014565991762129,0.08934459962488378,2
0.5188679245283019,225,170,1.1619834318307554,-1.4201720761158036,2
0.5220125786163522,224,170,0.5014565991762129,0.08934459962488378,2
0.5251572327044025,224,169,-1.1717379528331873,-0.23741666918063567,2
0.5283018867924528,224,169,-1.1717379528331873,-0.23741666918063567,2
0.5314465408805031,223,171,1.5141243185310704,1.9256225441710906,2
0.5345911949685535,223,171,1.5141243185310704,1.9256225441710906,2
0.5377358490566038,224,170,0.5014565991762129,0.08934459962488378,2
0.5408805031446541,224,170,0.5014565991762129,0.08934459962488378,2
0.5440251572327044,224,170,0.5014565991762129,0.08934459962488378,2
0.5471698113207547,224,169,-1.1717379528331873,-0.23741666918063567,2
0.550314465408805,223,170,-0.15907023347832971,1.598861275365571,2
0.5534591194968553,224,169,-1.1717379528331873,-0.23741666918063567,2
0.5566037735849056,223,170,-0.15907023347832971,1.598861275365571,2
0.559748427672956,224,170,0.5014565991762129,0.08934459962488378,2
0.5628930817610063,224,170,0.5014565991762129,0.08934459962488378,2
0.5660377358490566,224,169,-1.1717379528331873,-0.23741666918063567,2
0.5691823899371069,224,169,-1.1717379528331873,-0.23741666918063567,2
0.5723270440251572,224,170,0.5014565991762129,0.08934459962488378,2
0.5754716981132075,223,170,-0.15907023347832971,1.598861275365571,2
0.5786163522012578,224,170,0.5014565991762129,0.08934459962488378,2
0.5817610062893082,224,170,0.5014565991762129,0.08934459962488378,2
0.5849056603773585,225,170,1.1619834318307554,-1.4201720761158036,2
0.5880503144654088,224,170,0.5014565991762129,0.08934459962488378,2
0.5911949685534591,224,169,-1.1717379528331873,-0.23741666918063567,2
0.5943396226415094,224,169,-1.1717379528331873,-0.23741666918063567,2
0.5974842767295597,223,170,-0.15907023347832971,1.598861275365571,2
0.60062893081761,223,171,1.5141243185310704,1.9256225441710906,2
0.6037735849056605,224,170,0.5014565991762129,0.08934459962488378,2
0.6069182389937108,224,169,-1.1717379528331873,-0.23741666918063567,2
0.6100628930817611,224,170,0.5014565991762129,0.08934459962488378,2
0.6132075471698114,224,170,0.5014565991762129,0.08934459962488378,2
0.6163522012578617,224,169,-1.1717379528331873,-0.23741666918063567,2
0.619496855345912,223,170,-0.15907023347832971,1.598861275365571,2
0.6226415094339623,223,171,1.5141243185310704,1.9256225441710906,2
0.6257861635220127,224,170,0.5014565991762129,0.08934459962488378,2
0.628930817610063,224,170,0.5014565991762129,0.08934459962488378,2
0.6320754716981133,224,169,-1.1717379528331873,-0.23741666918063567,2
0.6352201257861636,224,169,-1.1717379528331873,-0.23741666918063567,2
0.6383647798742139,224,169,-1.1717379528331873,-0.23741666918063567,2
0.6415094339622642,223,171,1.5141243185310704,1.9256225441710906,2
0.6446540880503145,224,170,0.5014565991762129,0.08934459962488378,2
0.6477987421383649,224,169,-1.1717379528331873,-0.23741666918063567,2
0.6509433962264152,224,170,0.5014565991762129,0.08934459962488378,2
0.6540880503144655,224,170,0.5014565991762129,0.08934459962488378,2
0.6572327044025158,225,170,1.1619834318307554,-1.4201720761158036,2
0.6603773584905661,224,169,-1.1717379528331873,-0.23741666918063567,2
0.6635220125786164,224,169,-1.1717379528331873,-0.23741666918063567,2
0.6666666666666667,223,170,-0.15907023347832971,1.598861275365571,2
0.669811320754717,224,170,0.5014565991762129,0.08934459962488378,2
0.6729559748427674,224,170,0.5014565991762129,0.08934459962488378,2
0.6761006289308177,224,170,0.5014565991762129,0.08934459962488378,2
0.679245283018868,225,170,1.1619834318307554,-1.4201720761158036,2
0.6823899371069183,224,169,-1.1717379528331873,-0.23741666918063567,2
0.6855345911949686,224,169,-1.1717379528331873,-0.23741666918063567,2
0.6886792452830189,223,169,-1.83226478548773,1.2721000065600516,2
0.6918238993710693,223,170,-0.15907023347832971,1.598861275365571,2
0.6949685534591196,225,170,1.1619834318307554,-1.4201720761158036,2
0.6981132075471699,224,170,0.5014565991762129,0.08934459962488378,2
0.7012578616352202,224,170,0.5014565991762129,0.08934459962488378,2
0.7044025157232705,224,169,-1.1717379528331873,-0.23741666918063567,2
0.7075471698113208,223,170,-0.15907023347832971,1.598861275365571,2
0.7106918238993711,223,171,1.5141243185310704,1.9256225441710906,2
0.7138364779874214,225,170,1.1619834318307554,-1.4201720761158036,2
0.7169811320754718,224,169,-1.1717379528331873,-0.23741666918063567,2
0.7201257861635221,224,169,-1.1717379528331873,-0.23741666918063567,2
0.7232704402515724,225,170,1.1619834318307554,-1.4201720761158036,2
0.7264150943396227,224,169,-1.1717379528331873,-0.23741666918063567,2
0.729559748427673,224,169,-1.1717379528331873,-0.23741666918063567,2
0.7327044025157233,223,171,1.5141243185310704,1.9256225441710906,2
0.7358490566037736,224,170,0.5014565991762129,0.08934459962488378,2
0.738993710691824,224,169,-1.1717379528331873,-0.23741666918063567,2
0.7421383647798743,225,170,1.1619834318307554,-1.4201720761158036,2
0.7452830188679246,224,169,-1.1717379528331873,-0.23741666918063567,2
0.7484276729559749,224,169,-1.1717379528331873,-0.23741666918063567,2
0.7515723270440252,223,170,-0.15907023347832971,1.598861275365571,2
0.7547169811320755,223,171,1.5141243185310704,1.9256225441710906,2
0.7578616352201258,225,170,1.1619834318307554,-1.4201720761158036,2
0.7610062893081762,225,170,1.1619834318307554,-1.4201720761158036,2
0.7641509433962265,225,170,1.1619834318307554,-1.4201720761158036,2
0.7672955974842768,224,169,-1.1717379528331873,-0.23741666918063567,2
0.7704402515723271,224,169,-1.1717379528331873,-0.23741666918063567,2
0.7735849056603774,224,169,-1.1717379528331873,-0.23741666918063567,2
0.7767295597484277,223,170,-0.15907023347832971,1.598861275365571,2
0.779874213836478,223,171,1.5141243185310704,1.9256225441710906,2
0.7830188679245284,225,170,1.1619834318307554,-1.4201720761158036,2
0.7861635220125787,225,170,1.1619834318307554,-1.4201720761158036,2
0.789308176100629,224,169,-1.1717379528331873,-0.23741666918063567,2
0.7924528301886793,224,169,-1.1717379528331873,-0.23741666918063567,2
0.7955974842767296,224,170,0.5014565991762129,0.08934459962488378,2
0.7987421383647799,224,170,0.5014565991762129,0.08934459962488378,2
0.8018867924528302,224,170,0.5014565991762129,0.08934459962488378,2
0.8050314465408805,224,170,0.5014565991762129,0.08934459962488378,2
0.8081761006289309,224,170,0.5014565991762129,0.08934459962488378,2
0.8113207547169812,224,169,-1.1717379528331873,-0.23741666918063567,2
0.8144654088050315,223,171,1.5141243185310704,1.9256225441710906,2
0.8176100628930818,223,171,1.5141243185310704,1.9256225441710906,2
0.8207547169811321,225,170,1.1619834318307554,-1.4201720761158036,2
0.8238993710691824,224,169,-1.1717379528331873,-0.23741666918063567,2
0.8270440251572327,224,169,-1.1717379528331873,-0.23741666918063567,2
0.8301886792452831,225,170,1.1619834318307554,-1.4201720761158036,2
0.8333333333333334,224,169,-1.1717379528331873,-0.23741666918063567,2
0.8364779874213837,224,169,-1.1717379528331873,-0.23741666918063567,2
0.839622641509434,223,171,1.5141243185310704,1.9256225441710906,2
0.8427672955974843,224,170,0.5014565991762129,0.08934459962488378,2
0.8459119496855346,224,169,-1.1717379528331873,-0.23741666918063567,2
0.8490566037735849,224,169,-1.1717379528331873,-0.23741666918063567,2
0.8522012578616353,225,170,1.1619834318307554,-1.4201720761158036,2
0.8553459119496856,224,169,-1.1717379528331873,-0.23741666918063567,2
0.8584905660377359,224,169,-1.1717379528331873,-0.23741666918063567,2
0.8616352201257862,224,170,0.5014565991762129,0.08934459962488378,2
0.8647798742138365,224,169,-1.1717379528331873,-0.23741666918063567,2
0.8679245283018868,225,170,1.1619834318307554,-1.4201720761158036,2
0.8710691823899371,224,170,0.5014565991762129,0.08934459962488378,2
0.8742138364779874,224,169,-1.1717379528331873,-0.23741666918063567,2
0.8773584905660378,224,169,-1.1717379528331873,-0.23741666918063567,2
0.8805031446540881,223,171,1.5141243185310704,1.9256225441710906,2
0.8836477987421384,224,170,0.5014565991762129,0.08934459962488378,2
0.8867924528301887,224,169,-1.1717379528331873,-0.23741666918063567,2
0.889937106918239,224,169,-1.1717379528331873,-0.23741666918063567,2
0.8930817610062893,225,170,1.1619834318307554,-1.4201720761158036,2
0.8962264150943396,224,170,0.5014565991762129,0.08934459962488378,2
0.89937106918239,224,169,-1.1717379528331873,-0.23741666918063567,2
0.9025157232704403,224,169,-1.1717379528331873,-0.23741666918063567,2
0.9056603773584906,223,170,-0.15907023347832971,1.598861275365571,2
0.9088050314465409,224,170,0.5014565991762129,0.08934459962488378,2
0.9119496855345912,224,170,0.5014565991762129,0.08934459962488378,2
0.9150943396226415,224,170,0.5014565991762129,0.08934459962488378,2
0.9182389937106918,225,170,1.1619834318307554,-1.4201720761158036,2
0.9213836477987422,224,169,-1.1717379528331873,-0.23741666918063567,2
0.9245283018867925,224,169,-1.1717379528331873,-0.23741666918063567,2
0.9276729559748428,223,170,-0.15907023347832971,1.598861275365571,2
0.9308176100628931,225,170,1.1619834318307554,-1.4201720761158036,2
0.9339622641509434,224,169,-1.1717379528331873,-0.23741666918063567,2
0.9371069182389937,224,169,-1.1717379528331873,-0.23741666918063567,2
0.940251572327044,225,169,-0.5112111201786447,-1.7469333449213231,2
0.9433962264150944,224,169,-1.1717379528331873,-0.23741666918063567,2
0.9465408805031447,224,169,-1.1717379528331873,-0.23741666918063567,2
0.949685534591195,224,169,-1.1717379528331873,-0.23741666918063567,2
0.9528301886792453,223,170,-0.15907023347832971,1.598861275365571,2
0.9559748427672956,224,170,0.5014565991762129,0.08934459962488378,2
0.9591194968553459,224,170,0.5014565991762129,0.08934459962488378,2
0.9622641509433962,224,169,-1.1717379528331873,-0.23741666918063567,2
0.9654088050314465,224,169,-1.1717379528331873,-0.23741666918063567,2
0.9685534591194969,224,169,-1.1717379528331873,-0.23741666918063567,2
0.9716981132075472,223,171,1.5141243185310704,1.9256225441710906,2
0.9748427672955975,224,170,0.5014565991762129,0.08934459962488378,2
0.9779874213836478,224,170,0.5014565991762129,0.08934459962488378,2
0.9811320754716981,225,170,1.1619834318307554,-1.4201720761158036,2
0.9842767295597484,224,169,-1.1717379528331873,-0.23741666918063567,2
0.9874213836477987,224,169,-1.1717379528331873,-0.23741666918063567,2
0.9905660377358491,224,169,-1.1717379528331873,-0.23741666918063567,2
0.9937106918238994,223,170,-0.15907023347832971,1.598861275365571,2
0.9968553459119497,223,171,1.5141243185310704,1.9256225441710906,2
1.0,225,170,1.1619834318307554,-1.4201720761158036,2
1.0031446540880504,224,170,0.5014565991762129,0.08934459962488378,2
1.0062893081761006,224,170,0.5014565991762129,0.08934459962488378,2
1.009433962264151,224,169,-1.1717379528331873,-0.23741666918063567,2
1.0125786163522013,223,171,1.5141243185310704,1.9256225441710906,2
1.0157232704402517,225,170,1.1619834318307554,-1.4201720761158036,2
1.0188679245283019,224,169,-1.1717379528331873,-0.23741666918063567,2
1.0220125786163523,224,169,-1.1717379528331873,-0.23741666918063567,2
1.0251572327044025,225,170,1.1619834318307554,-1.4201720761158036,2
1.028301886792453,224,169,-1.1717379528331873,-0.23741666918063567,2
1.0314465408805031,224,169,-1.1717379528331873,-0.23741666918063567,2
1.0345911949685536,224,169,-1.1717379528331873,-0.23741666918063567,2
1.0377358490566038,223,170,-0.15907023347832971,1.598861275365571,2
1.0408805031446542,224,170,0.5014565991762129,0.08934459962488378,2
1.0440251572327044,224,170,0.5014565991762129,0.08934459962488378,2
1.0471698113207548,224,169,-1.1717379528331873,-0.23741666918063567,2
1.050314465408805,225,170,1.1619834318307554,-1.4201720761158036,2
1.0534591194968554,224,169,-1.1717379528331873,-0.23741666918063567,2
1.0566037735849056,224,169,-1.1717379528331873,-0.23741666918063567,2
1.059748427672956,223,170,-0.15907023347832971,1.598861275365571,2
1.0628930817610063,224,170,0.5014565991762129,0.08934459962488378,2
1.0660377358490567,224,169,-1.1717379528331873,-0.23741666918063567,2
1.069182389937107,224,170,0.5014565991762129,0.08934459962488378,2
1.0723270440251573,225,170,1.1619834318307554,-1.4201720761158036,2
1.0754716981132075,224,170,0.5014565991762129,0.08934459962488378,2
1.078616352201258,224,169,-1.1717379528331873,-0.23741666918063567,2
1.0817610062893082,223,170,-0.15907023347832971,1.598861275365571,2
1.0849056603773586,224,170,0.5014565991762129,0.08934459962488378,2
1.0880503144654088,225,170,1.1619834318307554,-1.4201720761158036,2
1.0911949685534592,224,170,0.5014565991762129,0.08934459962488378,2
1.0943396226415094,224,169,-1.1717379528331873,-0.23741666918063567,2
1.0974842767295598,225,169,-0.5112111201786447,-1.7469333449213231,2
1.10062893081761,224,169,-1.1717379528331873,-0.23741666918063567,2
1.1037735849056605,224,169,-1.1717379528331873,-0.23741666918063567,2
1.1069182389937107,224,170,0.5014565991762129,0.08934459962488378,2
1.110062893081761,224,169,-1.1717379528331873,-0.23741666918063567,2
1.1132075471698113,225,170,1.1619834318307554,-1.4201720761158036,2
1.1163522012578617,224,170,0.5014565991762129,0.08934459962488378,2
1.119496855345912,224,169,-1.1717379528331873,-0.23741666918063567,2
1.1226415094339623,223,170,-0.15907023347832971,1.598861275365571,2
1.1257861635220126,224,170,0.5014565991762129,0.08934459962488378,2
1.128930817610063,224,169,-1.1717379528331873,-0.23741666918063567,2
1.1320754716981132,224,170,0.5014565991762129,0.08934459962488378,2
1.1352201257861636,225,170,1.1619834318307554,-1.4201720761158036,2
1.1383647798742138,224,170,0.5014565991762129,0.08934459962488378,2
1.1415094339622642,224,169,-1.1717379528331873,-0.23741666918063567,2
1.1446540880503144,224,169,-1.1717379528331873,-0.23741666918063567,2
1.1477987421383649,223,171,1.5141243185310704,1.9256225441710906,2
1.150943396226415,225,170,1.1619834318307554,-1.4201720761158036,2
1.1540880503144655,224,169,-1.1717379528331873,-0.23741666918063567,2
1.1572327044025157,225,170,1.1619834318307554,-1.4201720761158036,2
1.1603773584905661,225,170,1.1619834318307554,-1.4201720761158036,2
1.1635220125786163,224,169,-1.1717379528331873,-0.23741666918063567,2
1.1666666666666667,224,169,-1.1717379528331873,-0.23741666918063567,2
1.169811320754717,223,170,-0.15907023347832971,1.598861275365571,2
1.1729559748427674,225,170,1.1619834318307554,-1.4201720761158036,2
1.1761006289308176,224,170,0.5014565991762129,0.08934459962488378,2
1.179245283018868,224,169,-1.1717379528331873,-0.23741666918063567,2
1.1823899371069182,225,170,1.1619834318307554,-1.4201720761158036,2
1.1855345911949686,224,169,-1.1717379528331873,-0.23741666918063567,2
1.1886792452830188,224,169,-1.1717379528331873,-0.23741666918063567,2
1.1918238993710693,224,169,-1.1717379528331873,-0.23741666918063567,2
1.1949685534591195,224,170,0.5014565991762129,0.08934459962488378,2
1.1981132075471699,224,170,0.5014565991762129,0.08934459962488378,2
1.20125786163522,224,170,0.5014565991762129,0.08934459962488378,2
1.2044025157232705,224,169,-1.1717379528331873,-0.23741666918063567,2
1.207547169811321,224,169,-1.1717379528331873,-0.23741666918063567,2
1.2106918238993711,223,170,-0.15907023347832971,1.598861275365571,2
1.2138364779874216,224,170,0.5014565991762129,0.08934459962488378,2
1.2169811320754718,224,170,0.5014565991762129,0.08934459962488378,2
1.2201257861635222,224,170,0.5014565991762129,0.08934459962488378,2
1.2232704402515724,224,170,0.5014565991762129,0.08934459962488378,2
1.2264150943396228,224,169,-1.1717379528331873,-0.23741666918063567,2
1.229559748427673,224,170,0.5014565991762129,0.08934459962488378,2
1.2327044025157234,223,171,1.5141243185310704,1.9256225441710906,2
1.2358490566037736,225,170,1.1619834318307554,-1.4201720761158036,2
1.238993710691824,224,169,-1.1717379528331873,-0.23741666918063567,2
1.2421383647798743,225,170,1.1619834318307554,-1.4201720761158036,2
1.2452830188679247,224,170,0.5014565991762129,0.08934459962488378,2
1.248427672955975,224,169,-1.1717379528331873,-0.23741666918063567,2
1.2515723270440253,224,169,-1.1717379528331873,-0.23741666918063567,2
1.2547169811320755,224,170,0.5014565991762129,0.08934459962488378,2
1.257861635220126,223,170,-0.15907023347832971,1.598861275365571,2
1.2610062893081762,225,170,1.1619834318307554,-1.4201720761158036,2
1.2641509433962266,224,170,0.5014565991762129,0.08934459962488378,2
1.2672955974842768,224,169,-1.1717379528331873,-0.23741666918063567,2
1.2704402515723272,224,169,-1.1717379528331873,-0.23741666918063567,2
1.2735849056603774,223,170,-0.15907023347832971,1.598861275365571,2
1.2767295597484278,224,170,0.5014565991762129,0.08934459962488378,2
1.279874213836478,224,169,-1.1717379528331873,-0.23741666918063567,2
1.2830188679245285,224,170,0.5014565991762129,0.08934459962488378,2
1.2861635220125787,224,170,0.5014565991762129,0.08934459962488378,2
1.289308176100629,225,170,1.1619834318307554,-1.4201720761158036,2
1.2924528301886793,224,169,-1.1717379528331873,-0.23741666918063567,2
1.2955974842767297,224,169,-1.1717379528331873,-0.23741666918063567,2
1.29874213836478,223,170,-0.15907023347832971,1.598861275365571,2
1.3018867924528303,223,170,-0.15907023347832971,1.598861275365571,2
1.3050314465408805,225,170,1.1619834318307554,-1.4201720761158036,2
1.308176100628931,224,169,-1.1717379528331873,-0.23741666918063567,2
1.3113207547169812,224,170,0.5014565991762129,0.08934459962488378,2
1.3144654088050316,225,170,1.1619834318307554,-1.4201720761158036,2
1.3176100628930818,224,169,-1.1717379528331873,-0.23741666918063567,2
1.3207547169811322,224,169,-1.1717379528331873,-0.23741666918063567,2
1.3238993710691824,224,169,-1.1717379528331873,-0.23741666918063567,2
1.3270440251572329,223,171,1.5141243185310704,1.9256225441710906,2
1.330188679245283,225,170,1.1619834318307554,-1.4201720761158036,2
1.3333333333333335,225,170,1.1619834318307554,-1.4201720761158036,2
1.3364779874213837,225,170,1.1619834318307554,-1.4201720761158036,2
1.339622641509434,224,169,-1.1717379528331873,-0.23741666918063567,2
1.3427672955974843,224,169,-1.1717379528331873,-0.23741666918063567,2
1.3459119496855347,223,171,1.5141243185310704,1.9256225441710906,2
1.349056603773585,225,170,1.1619834318307554,-1.4201720761158036,2
1.3522012578616354,224,170,0.5014565991762129,0.08934459962488378,2
1.3553459119496856,224,170,0.5014565991762129,0.08934459962488378,2
1.358490566037736,224,169,-1.1717379528331873,-0.23741666918063567,2
1.3616352201257862,224,169,-1.1717379528331873,-0.23741666918063567,2
1.3647798742138366,223,171,1.5141243185310704,1.9256225441710906,2
1.3679245283018868,223,169,-1.83226478548773,1.2721000065600516,2
1.3710691823899372,223,171,1.5141243185310704,1.9256225441710906,2
1.3742138364779874,224,170,0.5014565991762129,0.08934459962488378,2
1.3773584905660379,225,170,1.1619834318307554,-1.4201720761158036,2
1.380503144654088,225,170,1.1619834318307554,-1.4201720761158036,2
1.3836477987421385,224,169,-1.1717379528331873,-0.23741666918063567,2
1.3867924528301887,224,169,-1.1717379528331873,-0.23741666918063567,2
1.3899371069182391,223,170,-0.15907023347832971,1.598861275365571,2
1.3930817610062893,225,170,1.1619834318307554,-1.4201720761158036,2
1.3962264150943398,224,169,-1.1717379528331873,-0.23741666918063567,2
1.39937106918239,225,170,1.1619834318307554,-1.4201720761158036,2
1.4025157232704404,224,169,-1.1717379528331873,-0.23741666918063567,2
1.4056603773584906,224,169,-1.1717379528331873,-0.23741666918063567,2
1.408805031446541,224,169,-1.1717379528331873,-0.23741666918063567,2
1.4119496855345912,223,171,1.5141243185310704,1.9256225441710906,2
1.4150943396226416,224,169,-1.1717379528331873,-0.23741666918063567,2
1.4182389937106918,224,170,0.5014565991762129,0.08934459962488378,2
1.4213836477987423,224,170,0.5014565991762129,0.08934459962488378,2
1.4245283018867925,224,169,-1.1717379528331873,-0.23741666918063567,2
1.427672955974843,224,169,-1.1717379528331873,-0.23741666918063567,2
1.430817610062893,223,170,-0.15907023347832971,1.598861275365571,2
1.4339622641509435,224,170,0.5014565991762129,0.08934459962488378,2
1.4371069182389937,224,170,0.5014565991762129,0.08934459962488378,2
1.4402515723270441,224,170,0.5014565991762129,0.08934459962488378,2
1.4433962264150944,224,170,0.5014565991762129,0.08934459962488378,2
1.4465408805031448,225,170,1.1619834318307554,-1.4201720761158036,2
1.449685534591195,224,169,-1.1717379528331873,-0.23741666918063567,2
1.4528301886792454,224,169,-1.1717379528331873,-0.23741666918063567,2
1.4559748427672956,223,171,1.5141243185310704,1.9256225441710906,2
1.459119496855346,224,170,0.5014565991762129,0.08934459962488378,2
1.4622641509433962,224,170,0.5014565991762129,0.08934459962488378,2
1.4654088050314467,224,170,0.5014565991762129,0.08934459962488378,2
1.4685534591194969,224,168,-2.8449325048425873,-0.5641779379861551,2
1.4716981132075473,224,169,-1.1717379528331873,-0.23741666918063567,2
1.4748427672955975,223,171,1.5141243185310704,1.9256225441710906,2
1.477987421383648,223,171,1.5141243185310704,1.9256225441710906,2
1.4811320754716981,225,170,1.1619834318307554,-1.4201720761158036,2
1.4842767295597485,224,170,0.5014565991762129,0.08934459962488378,2
1.4874213836477987,224,170,0.5014565991762129,0.08934459962488378,2
1.4905660377358492,224,169,-1.1717379528331873,-0.23741666918063567,2
1.4937106918238994,224,169,-1.1717379528331873,-0.23741666918063567,2
1.4968553459119498,223,170,-0.15907023347832971,1.598861275365571,2
1.5,224,170,0.5014565991762129,0.08934459962488378,2
1.5031446540880504,224,170,0.5014565991762129,0.08934459962488378,2
1.5062893081761006,224,170,0.5014565991762129,0.08934459962488378,2
1.509433962264151,225,170,1.1619834318307554,-1.4201720761158036,2
1.5125786163522013,224,169,-1.1717379528331873,-0.23741666918063567,2
1.5157232704402517,223,170,-0.15907023347832971,1.598861275365571,2
1.5188679245283019,224,169,-1.1717379528331873,-0.23741666918063567,2
1.5220125786163523,223,170,-0.15907023347832971,1.598861275365571,2
1.5251572327044025,225,170,1.1619834318307554,-1.4201720761158036,2
1.528301886792453,225,169,-0.5112111201786447,-1.7469333449213231,2
1.5314465408805031,225,170,1.1619834318307554,-1.4201720761158036,2
1.5345911949685536,224,169,-1.1717379528331873,-0.23741666918063567,2
1.5377358490566038,224,169,-1.1717379528331873,-0.23741666918063567,2
1.5408805031446542,223,170,-0.15907023347832971,1.598861275365571,2
1.5440251572327044,225,170,1.1619834318307554,-1.4201720761158036,2
1.5471698113207548,224,169,-1.1717379528331873,-0.23741666918063567,2
1.550314465408805,224,169,-1.1717379528331873,-0.23741666918063567,2
1.5534591194968554,224,169,-1.1717379528331873,-0.23741666918063567,2
1.5566037735849056,224,169,-1.1717379528331873,-0.23741666918063567,2
1.559748427672956,223,170,-0.15907023347832971,1.598861275365571,2
1.5628930817610063,223,171,1.5141243185310704,1.9256225441710906,2
1.5660377358490567,223,170,-0.15907023347832971,1.598861275365571,2
1.569182389937107,225,170,1.1619834318307554,-1.4201720761158036,2
1.5723270440251573,225,170,1.1619834318307554,-1.4201720761158036,2
1.5754716981132075,225,169,-0.5112111201786447,-1.7469333449213231,2
1.578616352201258,224,169,-1.1717379528331873,-0.23741666918063567,2
1.5817610062893082,224,169,-1.1717379528331873,-0.23741666918063567,2
1.5849056603773586,224,169,-1.1717379528331873,-0.23741666918063567,2
1.5880503144654088,223,170,-0.15907023347832971,1.598861275365571,2
1.5911949685534592,225,170,1.1619834318307554,-1.4201720761158036,2
1.5943396226415094,224,170,0.5014565991762129,0.08934459962488378,2
1.5974842767295598,224,169,-1.1717379528331873,-0.23741666918063567,2
1.60062893081761,224,169,-1.1717379528331873,-0.23741666918063567,2
1.6037735849056605,223,170,-0.15907023347832971,1.598861275365571,2
1.6069182389937107,223,171,1.5141243185310704,1.9256225441710906,2
1.610062893081761,225,170,1.1619834318307554,-1.4201720761158036,2
1.6132075471698115,224,169,-1.1717379528331873,-0.23741666918063567,2
1.6163522012578617,225,170,1.1619834318307554,-1.4201720761158036,2
1.6194968553459121,224,170,0.5014565991762129,0.08934459962488378,2
1.6226415094339623,224,169,-1.1717379528331873,-0.23741666918063567,2
1.6257861635220128,224,169,-1.1717379528331873,-0.23741666918063567,2
1.628930817610063,223,171,1.5141243185310704,1.9256225441710906,2
1.6320754716981134,223,170,-0.15907023347832971,1.598861275365571,2
1.6352201257861636,225,170,1.1619834318307554,-1.4201720761158036,2
1.638364779874214,224,170,0.5014565991762129,0.08934459962488378,2
1.6415094339622642,224,169,-1.1717379528331873,-0.23741666918063567,2
1.6446540880503147,224,169,-1.1717379528331873,-0.23741666918063567,2
1.6477987421383649,223,170,-0.15907023347832971,1.598861275365571,2
1.6509433962264153,223,170,-0.15907023347832971,1.598861275365571,2
1.6540880503144655,225,170,1.1619834318307554,-1.4201720761158036,2
1.657232704402516,224,170,0.5014565991762129,0.08934459962488378,2
1.6603773584905661,224,170,0.5014565991762129,0.08934459962488378,2
1.6635220125786165,224,169,-1.1717379528331873,-0.23741666918063567,2
1.6666666666666667,224,170,0.5014565991762129,0.08934459962488378,2
1.6698113207547172,223,171,1.5141243185310704,1.9256225441710906,2
1.6729559748427674,224,170,0.5014565991762129,0.08934459962488378,2
1.6761006289308178,224,170,0.5014565991762129,0.08934459962488378,2
1.679245283018868,225,170,1.1619834318307554,-1.4201720761158036,2
1.6823899371069184,224,170,0.5014565991762129,0.08934459962488378,2
1.6855345911949686,224,169,-1.1717379528331873,-0.23741666918063567,2
1.688679245283019,224,169,-1.1717379528331873,-0.23741666918063567,2
1.6918238993710693,223,170,-0.15907023347832971,1.598861275365571,2
1.6949685534591197,223,171,1.5141243185310704,1.9256225441710906,2
1.6981132075471699,225,170,1.1619834318307554,-1.4201720761158036,2
1.7012578616352203,224,170,0.5014565991762129,0.08934459962488378,2
1.7044025157232705,224,170,0.5014565991762129,0.08934459962488378,2
1.707547169811321,224,169,-1.1717379528331873,-0.23741666918063567,2
1.7106918238993711,224,170,0.5014565991762129,0.08934459962488378,2
1.7138364779874216,223,170,-0.15907023347832971,1.598861275365571,2
1.7169811320754718,224,170,0.5014565991762129,0.08934459962488378,2
1.7201257861635222,224,169,-1.1717379528331873,-0.23741666918063567,2
1.7232704402515724,224,169,-1.1717379528331873,-0.23741666918063567,2
1.7264150943396228,225,170,1.1619834318307554,-1.4201720761158036,2
1.729559748427673,224,170,0.5014565991762129,0.08934459962488378,2
1.7327044025157234,224,169,-1.1717379528331873,-0.23741666918063567,2
1.7358490566037736,224,169,-1.1717379528331873,-0.23741666918063567,2
1.738993710691824,224,169,-1.1717379528331873,-0.23741666918063567,2
1.7421383647798743,223,171,1.5141243185310704,1.9256225441710906,2
1.7452830188679247,225,170,1.1619834318307554,-1.4201720761158036,2
1.748427672955975,224,170,0.5014565991762129,0.08934459962488378,2
1.7515723270440253,224,169,-1.1717379528331873,-0.23741666918063567,2
1.7547169811320755,224,169,-1.1717379528331873,-0.23741666918063567,2
1.757861635220126,223,170,-0.15907023347832971,1.598861275365571,2
1.7610062893081762,224,170,0.5014565991762129,0.08934459962488378,2
1.7641509433962266,224,170,0.5014565991762129,0.08934459962488378,2
1.7672955974842768,224,169,-1.1717379528331873,-0.23741666918063567,2
1.7704402515723272,225,170,1.1619834318307554,-1.4201720761158036,2
1.7735849056603774,224,170,0.5014565991762129,0.08934459962488378,2
1.7767295597484278,224,169,-1.1717379528331873,-0.23741666918063567,2
1.779874213836478,224,169,-1.1717379528331873,-0.23741666918063567,2
1.7830188679245285,223,170,-0.15907023347832971,1.598861275365571,2
1.7861635220125787,225,170,1.1619834318307554,-1.4201720761158036,2
1.789308176100629,224,169,-1.1717379528331873,-0.23741666918063567,2
1.7924528301886793,224,170,0.5014565991762129,0.08934459962488378,2
1.7955974842767297,225,170,1.1619834318307554,-1.4201720761158036,2
1.79874213836478,224,169,-1.1717379528331873,-0.23741666918063567,2
1.8018867924528303,224,169,-1.1717379528331873,-0.23741666918063567,2
1.8050314465408805,223,171,1.5141243185310704,1.9256225441710906,2
1.808176100628931,224,170,0.5014565991762129,0.08934459962488378,2
1.8113207547169812,224,170,0.5014565991762129,0.08934459962488378,2
1.8144654088050316,224,169,-1.1717379528331873,-0.23741666918063567,2
1.8176100628930818,224,169,-1.1717379528331873,-0.23741666918063567,2
1.8207547169811322,224,170,0.5014565991762129,0.08934459962488378,2
1.8238993710691824,223,171,1.5141243185310704,1.9256225441710906,2
1.8270440251572329,223,171,1.5141243185310704,1.9256225441710906,2
1.830188679245283,223,171,1.5141243185310704,1.9256225441710906,2
1.8333333333333335,225,170,1.1619834318307554,-1.4201720761158036,2
1.8364779874213837,224,170,0.5014565991762129,0.08934459962488378,2
1.839622641509434,224,169,-1.1717379528331873,-0.23741666918063567,2
1.8427672955974843,224,170,0.5014565991762129,0.08934459962488378,2
1.8459119496855347,223,171,1.5141243185310704,1.9256225441710906,2
1.849056603773585,224,170,0.5014565991762129,0.08934459962488378,2
1.8522012578616354,224,169,-1.1717379528331873,-0.23741666918063567,2
1.8553459119496856,224,169,-1.1717379528331873,-0.23741666918063567,2
1.858490566037736,224,169,-1.1717379528331873,-0.23741666918063567,2
1.8616352201257862,225,170,1.1619834318307554,-1.4201720761158036,2
1.8647798742138366,224,169,-1.1717379528331873,-0.23741666918063567,2
1.8679245283018868,224,169,-1.1717379528331873,-0.23741666918063567,2
1.8710691823899372,224,169,-1.1717379528331873,-0.23741666918063567,2
1.8742138364779874,224,170,0.5014565991762129,0.08934459962488378,2
1.8773584905660379,224,170,0.5014565991762129,0.08934459962488378,2
1.880503144654088,224,170,0.5014565991762129,0.08934459962488378,2
1.8836477987421385,224,169,-1.1717379528331873,-0.23741666918063567,2
1.8867924528301887,223,169,-1.83226478548773,1.2721000065600516,2
1.8899371069182391,224,170,0.5014565991762129,0.08934459962488378,2
1.8930817610062893,224,169,-1.1717379528331873,-0.23741666918063567,2
1.8962264150943398,224,170,0.5014565991762129,0.08934459962488378,2
1.89937106918239,224,169,-1.1717379528331873,-0.23741666918063567,2
1.9025157232704404,223,171,1.5141243185310704,1.9256225441710906,2
1.9056603773584906,224,170,0.5014565991762129,0.08934459962488378,2
1.908805031446541,223,170,-0.15907023347832971,1.598861275365571,2
1.9119496855345912,224,170,0.5014565991762129,0.08934459962488378,2
1.9150943396226416,224,169,-1.1717379528331873,-0.23741666918063567,2
1.9182389937106918,224,169,-1.1717379528331873,-0.23741666918063567,2
1.9213836477987423,224,170,0.5014565991762129,0.08934459962488378,2
1.9245283018867925,225,170,1.1619834318307554,-1.4201720761158036,2
1.927672955974843,224,169,-1.1717379528331873,-0.23741666918063567,2
1.930817610062893,224,169,-1.1717379528331873,-0.23741666918063567,2
1.9339622641509435,224,169,-1.1717379528331873,-0.23741666918063567,2
1.9371069182389937,224,169,-1.1717379528331873,-0.23741666918063567,2
1.9402515723270441,224,170,0.5014565991762129,0.08934459962488378,2
1.9433962264150944,224,170,0.5014565991762129,0.08934459962488378,2
1.9465408805031448,224,169,-1.1717379528331873,-0.23741666918063567,2
1.949685534591195,224,170,0.5014565991762129,0.08934459962488378,2
1.9528301886792454,224,169,-1.1717379528331873,-0.23741666918063567,2
1.9559748427672956,223,171,1.5141243185310704,1.9256225441710906,2
1.959119496855346,224,170,0.5014565991762129,0.08934459962488378,2
1.9622641509433962,224,169,-1.1717379528331873,-0.23741666918063567,2
1.9654088050314467,224,169,-1.1717379528331873,-0.23741666918063567,2
1.9685534591194969,225,170,1.1619834318307554,-1.4201720761158036,2
1.9716981132075473,224,169,-1.1717379528331873,-0.23741666918063567,2
1.9748427672955975,223,171,1.5141243185310704,1.9256225441710906,2
1.977987421383648,224,169,-1.1717379528331873,-0.23741666918063567,2
1.9811320754716981,224,169,-1.1717379528331873,-0.23741666918063567,2
1.9842767295597485,225,170,1.1619834318307554,-1.4201720761158036,2
1.9874213836477987,224,170,0.5014565991762129,0.08934459962488378,2
1.9905660377358492,224,169,-1.1717379528331873,-0.23741666918063567,2
1.9937106918238994,224,169,-1.1717379528331873,-0.23741666918063567,2
1.9968553459119498,224,169,-1.1717379528331873,-0.23741666918063567,2
2.0,223,170,-0.15907023347832971,1.598861275365571,2
2.00314465408805,224,170,0.5014565991762129,0.08934459962488378,2
2.006289308176101,224,169,-1.1717379528331873,-0.23741666918063567,2
2.009433962264151,224,169,-1.1717379528331873,-0.23741666918063567,2
2.0125786163522013,224,169,-1.1717379528331873,-0.23741666918063567,2
2.015723270440252,224,170,0.5014565991762129,0.08934459962488378,2
2.018867924528302,223,170,-0.15907023347832971,1.598861275365571,2
2.0220125786163523,224,170,0.5014565991762129,0.08934459962488378,2
2.0251572327044025,224,169,-1.1717379528331873,-0.23741666918063567,2
2.028301886792453,225,170,1.1619834318307554,-1.4201720761158036,2
2.0314465408805034,224,170,0.5014565991762129,0.08934459962488378,2
2.0345911949685536,224,169,-1.1717379528331873,-0.23741666918063567,2
2.0377358490566038,224,169,-1.1717379528331873,-0.23741666918063567,2
2.0408805031446544,224,169,-1.1717379528331873,-0.23741666918063567,2
2.0440251572327046,223,170,-0.15907023347832971,1.598861275365571,2
2.047169811320755,224,170,0.5014565991762129,0.08934459962488378,2
2.050314465408805,224,169,-1.1717379528331873,-0.23741666918063567,2
2.0534591194968557,224,169,-1.1717379528331873,-0.23741666918063567,2
2.056603773584906,224,169,-1.1717379528331873,-0.23741666918063567,2
2.059748427672956,225,170,1.1619834318307554,-1.4201720761158036,2
2.0628930817610063,224,169,-1.1717379528331873,-0.23741666918063567,2
2.066037735849057,224,169,-1.1717379528331873,-0.23741666918063567,2
2.069182389937107,224,170,0.5014565991762129,0.08934459962488378,2
2.0723270440251573,223,170,-0.15907023347832971,1.598861275365571,2
2.0754716981132075,225,171,2.8351779838401563,-1.0934108073102842,2
2.078616352201258,224,170,0.5014565991762129,0.08934459962488378,2
2.0817610062893084,224,169,-1.1717379528331873,-0.23741666918063567,2
2.0849056603773586,224,169,-1.1717379528331873,-0.23741666918063567,2
2.088050314465409,223,171,1.5141243185310704,1.9256225441710906,2
2.0911949685534594,224,170,0.5014565991762129,0.08934459962488378,2
2.0943396226415096,224,169,-1.1717379528331873,-0.23741666918063567,2
2.09748427672956,224,169,-1.1717379528331873,-0.23741666918063567,2
2.10062893081761,225,170,1.1619834318307554,-1.4201720761158036,2
2.1037735849056607,224,169,-1.1717379528331873,-0.23741666918063567,2
2.106918238993711,224,169,-1.1717379528331873,-0.23741666918063567,2
2.110062893081761,224,169,-1.1717379528331873,-0.23741666918063567,2
2.1132075471698113,223,170,-0.15907023347832971,1.598861275365571,2
2.116352201257862,224,170,0.5014565991762129,0.08934459962488378,2
2.119496855345912,224,170,0.5014565991762129,0.08934459962488378,2
2.1226415094339623,225,170,1.1619834318307554,-1.4201720761158036,2
2.1257861635220126,224,169,-1.1717379528331873,-0.23741666918063567,2
2.128930817610063,224,169,-1.1717379528331873,-0.23741666918063567,2
2.1320754716981134,223,170,-0.15907023347832971,1.598861275365571,2
2.1352201257861636,224,170,0.5014565991762129,0.08934459962488378,2
2.138364779874214,224,170,0.5014565991762129,0.08934459962488378,2
2.1415094339622645,224,170,0.5014565991762129,0.08934459962488378,2
2.1446540880503147,224,169,-1.1717379528331873,-0.23741666918063567,2
2.147798742138365,225,170,1.1619834318307554,-1.4201720761158036,2
2.150943396226415,224,169,-1.1717379528331873,-0.23741666918063567,2
2.1540880503144657,224,169,-1.1717379528331873,-0.23741666918063567,2
2.157232704402516,224,170,0.5014565991762129,0.08934459962488378,2
2.160377358490566,224,169,-1.1717379528331873,-0.23741666918063567,2
2.1635220125786163,224,170,0.5014565991762129,0.08934459962488378,2
2.166666666666667,224,169,-1.1717379528331873,-0.23741666918063567,2
2.169811320754717,224,170,0.5014565991762129,0.08934459962488378,2
2.1729559748427674,223,171,1.5141243185310704,1.9256225441710906,2
2.1761006289308176,224,170,0.5014565991762129,0.08934459962488378,2
2.179245283018868,224,169,-1.1717379528331873,-0.23741666918063567,2
2.1823899371069184,224,169,-1.1717379528331873,-0.23741666918063567,2
2.1855345911949686,224,169,-1.1717379528331873,-0.23741666918063567,2
2.188679245283019,224,169,-1.1717379528331873,-0.23741666918063567,2
2.1918238993710695,224,170,0.5014565991762129,0.08934459962488378,2
2.1949685534591197,223,170,-0.15907023347832971,1.598861275365571,2
2.19811320754717,224,170,0.5014565991762129,0.08934459962488378,2
2.20125786163522,224,169,-1.1717379528331873,-0.23741666918063567,2
2.2044025157232707,225,170,1.1619834318307554,-1.4201720761158036,2
2.207547169811321,225,169,-0.5112111201786447,-1.7469333449213231,2
2.210691823899371,224,169,-1.1717379528331873,-0.23741666918063567,2
2.2138364779874213,224,169,-1.1717379528331873,-0.23741666918063567,2
2.216981132075472,223,170,-0.15907023347832971,1.598861275365571,2
2.220125786163522,225,170,1.1619834318307554,-1.4201720761158036,2
2.2232704402515724,224,169,-1.1717379528331873,-0.23741666918063567,2
2.2264150943396226,225,170,1.1619834318307554,-1.4201720761158036,2
2.2295597484276732,224,170,0.5014565991762129,0.08934459962488378,2
2.2327044025157234,224,169,-1.1717379528331873,-0.23741666918063567,2
2.2358490566037736,224,169,-1.1717379528331873,-0.23741666918063567,2
2.238993710691824,223,170,-0.15907023347832971,1.598861275365571,2
2.2421383647798745,223,170,-0.15907023347832971,1.598861275365571,2
2.2452830188679247,225,170,1.1619834318307554,-1.4201720761158036,2
2.248427672955975,224,170,0.5014565991762129,0.08934459962488378,2
2.251572327044025,224,170,0.5014565991762129,0.08934459962488378,2
2.2547169811320757,224,169,-1.1717379528331873,-0.23741666918063567,2
2.257861635220126,224,169,-1.1717379528331873,-0.23741666918063567,2
2.261006289308176,223,170,-0.15907023347832971,1.598861275365571,2
2.2641509433962264,223,171,1.5141243185310704,1.9256225441710906,2
2.267295597484277,225,170,1.1619834318307554,-1.4201720761158036,2
2.270440251572327,224,170,0.5014565991762129,0.08934459962488378,2
2.2735849056603774,224,170,0.5014565991762129,0.08934459962488378,2
2.2767295597484276,224,170,0.5014565991762129,0.08934459962488378,2
2.2798742138364783,224,170,0.5014565991762129,0.08934459962488378,2
2.2830188679245285,223,170,-0.15907023347832971,1.598861275365571,2
2.2861635220125787,224,170,0.5014565991762129,0.08934459962488378,2
2.289308176100629,224,170,0.5014565991762129,0.08934459962488378,2
2.2924528301886795,224,169,-1.1717379528331873,-0.23741666918063567,2
2.2955974842767297,225,170,1.1619834318307554,-1.4201720761158036,2
2.29874213836478,224,170,0.5014565991762129,0.08934459962488378,2
2.30188679245283,224,169,-1.1717379528331873,-0.23741666918063567,2
2.3050314465408808,223,170,-0.15907023347832971,1.598861275365571,2
2.308176100628931,224,170,0.5014565991762129,0.08934459962488378,2
2.311320754716981,224,169,-1.1717379528331873,-0.23741666918063567,2
2.3144654088050314,224,169,-1.1717379528331873,-0.23741666918063567,2
2.317610062893082,225,170,1.1619834318307554,-1.4201720761158036,2
2.3207547169811322,224,169,-1.1717379528331873,-0.23741666918063567,2
2.3238993710691824,224,169,-1.1717379528331873,-0.23741666918063567,2
2.3270440251572326,224,169,-1.1717379528331873,-0.23741666918063567,2
2.3301886792452833,223,170,-0.15907023347832971,1.598861275365571,2
2.3333333333333335,224,170,0.5014565991762129,0.08934459962488378,2
2.3364779874213837,224,170,0.5014565991762129,0.08934459962488378,2
2.339622641509434,224,170,0.5014565991762129,0.08934459962488378,2
2.3427672955974845,224,169,-1.1717379528331873,-0.23741666918063567,2
2.3459119496855347,224,169,-1.1717379528331873,-0.23741666918063567,2
2.349056603773585,223,170,-0.15907023347832971,1.598861275365571,2
2.352201257861635,224,170,0.5014565991762129,0.08934459962488378,2
2.355345911949686,224,169,-1.1717379528331873,-0.23741666918063567,2
2.358490566037736,225,170,1.1619834318307554,-1.4201720761158036,2
2.361635220125786,224,169,-1.1717379528331873,-0.23741666918063567,2
2.3647798742138364,224,170,0.5014565991762129,0.08934459962488378,2
2.367924528301887,224,169,-1.1717379528331873,-0.23741666918063567,2
2.3710691823899372,223,170,-0.15907023347832971,1.598861275365571,2
2.3742138364779874,224,170,0.5014565991762129,0.08934459962488378,2
2.3773584905660377,224,169,-1.1717379528331873,-0.23741666918063567,2
2.3805031446540883,224,170,0.5014565991762129,0.08934459962488378,2
2.3836477987421385,225,170,1.1619834318307554,-1.4201720761158036,2
2.3867924528301887,224,169,-1.1717379528331873,-0.23741666918063567,2
2.389937106918239,224,169,-1.1717379528331873,-0.23741666918063567,2
2.3930817610062896,224,169,-1.1717379528331873,-0.23741666918063567,2
2.3962264150943398,223,171,1.5141243185310704,1.9256225441710906,2
2.39937106918239,223,171,1.5141243185310704,1.9256225441710906,2
2.40251572327044,224,170,0.5014565991762129,0.08934459962488378,2
2.405660377358491,225,170,1.1619834318307554,-1.4201720761158036,2
2.408805031446541,224,169,-1.1717379528331873,-0.23741666918063567,2
2.411949685534591,224,169,-1.1717379528331873,-0.23741666918063567,2
2.415094339622642,224,169,-1.1717379528331873,-0.23741666918063567,2
2.418238993710692,223,171,1.5141243185310704,1.9256225441710906,2
2.4213836477987423,224,170,0.5014565991762129,0.08934459962488378,2
2.4245283018867925,224,170,0.5014565991762129,0.08934459962488378,2
2.427672955974843,224,170,0.5014565991762129,0.08934459962488378,2
2.4308176100628933,224,169,-1.1717379528331873,-0.23741666918063567,2
2.4339622641509435,223,170,-0.15907023347832971,1.598861275365571,2
2.4371069182389937,224,170,0.5014565991762129,0.08934459962488378,2
2.4402515723270444,224,170,0.5014565991762129,0.08934459962488378,2
2.4433962264150946,225,170,1.1619834318307554,-1.4201720761158036,2
2.4465408805031448,224,170,0.5014565991762129,0.08934459962488378,2
2.449685534591195,224,170,0.5014565991762129,0.08934459962488378,2
2.4528301886792456,224,170,0.5014565991762129,0.08934459962488378,2
2.455974842767296,224,169,-1.1717379528331873,-0.23741666918063567,2
2.459119496855346,223,170,-0.15907023347832971,1.598861275365571,2
2.4622641509433962,224,170,0.5014565991762129,0.08934459962488378,2
2.465408805031447,224,170,0.5014565991762129,0.08934459962488378,2
2.468553459119497,224,169,-1.1717379528331873,-0.23741666918063567,2
2.4716981132075473,225,170,1.1619834318307554,-1.4201720761158036,2
2.4748427672955975,224,170,0.5014565991762129,0.08934459962488378,2
2.477987421383648,224,169,-1.1717379528331873,-0.23741666918063567,2
2.4811320754716983,224,169,-1.1717379528331873,-0.23741666918063567,2
2.4842767295597485,223,171,1.5141243185310704,1.9256225441710906,2
2.4874213836477987,225,170,1.1619834318307554,-1.4201720761158036,2
2.4905660377358494,224,170,0.5014565991762129,0.08934459962488378,2
2.4937106918238996,224,170,0.5014565991762129,0.08934459962488378,2
2.49685534591195,224,169,-1.1717379528331873,-0.23741666918063567,2
2.5,223,170,-0.15907023347832971,1.598861275365571,2
2.5031446540880506,224,170,0.5014565991762129,0.08934459962488378,2
2.506289308176101,224,169,-1.1717379528331873,-0.23741666918063567,2
2.509433962264151,225,170,1.1619834318307554,-1.4201720761158036,2
2.5125786163522013,224,170,0.5014565991762129,0.08934459962488378,2
2.515723270440252,224,169,-1.1717379528331873,-0.23741666918063567,2
2.518867924528302,224,169,-1.1717379528331873,-0.23741666918063567,2
2.5220125786163523,223,171,1.5141243185310704,1.9256225441710906,2
2.5251572327044025,223,171,1.5141243185310704,1.9256225441710906,2
2.528301886792453,223,171,1.5141243185310704,1.9256225441710906,2
2.5314465408805034,225,170,1.1619834318307554,-1.4201720761158036,2
2.5345911949685536,225,170,1.1619834318307554,-1.4201720761158036,2
2.5377358490566038,225,170,1.1619834318307554,-1.4201720761158036,2
2.5408805031446544,224,169,-1.1717379528331873,-0.23741666918063567,2
2.5440251572327046,224,169,-1.1717379528331873,-0.23741666918063567,2
2.547169811320755,224,169,-1.1717379528331873,-0.23741666918063567,2
2.550314465408805,223,171,1.5141243185310704,1.9256225441710906,2
2.5534591194968557,225,170,1.1619834318307554,-1.4201720761158036,2
2.556603773584906,224,170,0.5014565991762129,0.08934459962488378,2
2.559748427672956,224,170,0.5014565991762129,0.08934459962488378,2
2.5628930817610063,224,169,-1.1717379528331873,-0.23741666918063567,2
2.566037735849057,223,171,1.5141243185310704,1.9256225441710906,2
2.569182389937107,224,170,0.5014565991762129,0.08934459962488378,2
2.5723270440251573,224,169,-1.1717379528331873,-0.23741666918063567,2
2.5754716981132075,225,170,1.1619834318307554,-1.4201720761158036,2
2.578616352201258,224,170,0.5014565991762129,0.08934459962488378,2
2.5817610062893084,224,170,0.5014565991762129,0.08934459962488378,2
2.5849056603773586,224,169,-1.1717379528331873,-0.23741666918063567,2
2.588050314465409,223,170,-0.15907023347832971,1.598861275365571,2
2.5911949685534594,223,171,1.5141243185310704,1.9256225441710906,2
2.5943396226415096,224,170,0.5014565991762129,0.08934459962488378,2
2.59748427672956,224,170,0.5014565991762129,0.08934459962488378,2
2.60062893081761,224,169,-1.1717379528331873,-0.23741666918063567,2
2.6037735849056607,225,170,1.1619834318307554,-1.4201720761158036,2
2.606918238993711,224,170,0.5014565991762129,0.08934459962488378,2
2.610062893081761,224,169,-1.1717379528331873,-0.23741666918063567,2
2.6132075471698113,224,169,-1.1717379528331873,-0.23741666918063567,2
2.616352201257862,223,171,1.5141243185310704,1.9256225441710906,2
2.619496855345912,225,170,1.1619834318307554,-1.4201720761158036,2
2.6226415094339623,225,170,1.1619834318307554,-1.4201720761158036,2
2.6257861635220126,225,170,1.1619834318307554,-1.4201720761158036,2
2.628930817610063,224,169,-1.1717379528331873,-0.23741666918063567,2
2.6320754716981134,224,169,-1.1717379528331873,-0.23741666918063567,2
2.6352201257861636,223,170,-0.15907023347832971,1.598861275365571,2
2.638364779874214,224,170,0.5014565991762129,0.08934459962488378,2
2.6415094339622645,224,169,-1.1717379528331873,-0.23741666918063567,2
2.6446540880503147,224,169,-1.1717379528331873,-0.23741666918063567,2
2.647798742138365,224,169,-1.1717379528331873,-0.23741666918063567,2
2.650943396226415,223,171,1.5141243185310704,1.9256225441710906,2
2.6540880503144657,225,170,1.1619834318307554,-1.4201720761158036,2
2.657232704402516,224,169,-1.1717379528331873,-0.23741666918063567,2
2.660377358490566,224,169,-1.1717379528331873,-0.23741666918063567,2
2.6635220125786163,225,170,1.1619834318307554,-1.4201720761158036,2
2.666666666666667,224,170,0.5014565991762129,0.08934459962488378,2
2.669811320754717,224,170,0.5014565991762129,0.08934459962488378,2
2.6729559748427674,224,169,-1.1717379528331873,-0.23741666918063567,2
2.6761006289308176,223,170,-0.15907023347832971,1.598861275365571,2
2.679245283018868,223,170,-0.15907023347832971,1.598861275365571,2
2.6823899371069184,224,170,0.5014565991762129,0.08934459962488378,2
2.6855345911949686,224,170,0.5014565991762129,0.08934459962488378,2
2.688679245283019,224,170,0.5014565991762129,0.08934459962488378,2
2.6918238993710695,224,170,0.5014565991762129,0.08934459962488378,2
2.6949685534591197,224,169,-1.1717379528331873,-0.23741666918063567,2
2.69811320754717,223,171,1.5141243185310704,1.9256225441710906,2
2.70125786163522,223,171,1.5141243185310704,1.9256225441710906,2
2.7044025157232707,224,170,0.5014565991762129,0.08934459962488378,2
2.707547169811321,224,170,0.5014565991762129,0.08934459962488378,2
2.710691823899371,224,170,0.5014565991762129,0.08934459962488378,2
2.7138364779874213,224,170,0.5014565991762129,0.08934459962488378,2
2.716981132075472,224,169,-1.1717379528331873,-0.23741666918063567,2
2.720125786163522,223,170,-0.15907023347832971,1.598861275365571,2
2.7232704402515724,223,170,-0.15907023347832971,1.598861275365571,2
2.7264150943396226,223,170,-0.15907023347832971,1.598861275365571,2
2.7295597484276732,225,170,1.1619834318307554,-1.4201720761158036,2
2.7327044025157234,225,170,1.1619834318307554,-1.4201720761158036,2
2.7358490566037736,225,170,1.1619834318307554,-1.4201720761158036,2
2.738993710691824,224,169,-1.1717379528331873,-0.23741666918063567,2
2.7421383647798745,224,169,-1.1717379528331873,-0.23741666918063567,2
2.7452830188679247,223,170,-0.15907023347832971,1.598861275365571,2
2.748427672955975,225,169,-0.5112111201786447,-1.7469333449213231,2
2.751572327044025,224,170,0.5014565991762129,0.08934459962488378,2
2.7547169811320757,224,170,0.5014565991762129,0.08934459962488378,2
2.757861635220126,224,170,0.5014565991762129,0.08934459962488378,2
2.761006289308176,224,169,-1.1717379528331873,-0.23741666918063567,2
2.7641509433962264,223,170,-0.15907023347832971,1.598861275365571,2
2.767295597484277,223,170,-0.15907023347832971,1.598861275365571,2
2.770440251572327,224,170,0.5014565991762129,0.08934459962488378,2
2.7735849056603774,224,170,0.5014565991762129,0.08934459962488378,2
2.7767295597484276,224,170,0.5014565991762129,0.08934459962488378,2
2.7798742138364783,224,170,0.5014565991762129,0.08934459962488378,2
2.7830188679245285,224,169,-1.1717379528331873,-0.23741666918063567,2
2.7861635220125787,223,170,-0.15907023347832971,1.598861275365571,2
2.789308176100629,224,170,0.5014565991762129,0.08934459962488378,2
2.7924528301886795,224,169,-1.1717379528331873,-0.23741666918063567,2
2.7955974842767297,224,170,0.5014565991762129,0.08934459962488378,2
2.79874213836478,224,170,0.5014565991762129,0.08934459962488378,2
2.80188679245283,225,170,1.1619834318307554,-1.4201720761158036,2
2.8050314465408808,224,169,-1.1717379528331873,-0.23741666918063567,2
2.808176100628931,224,169,-1.1717379528331873,-0.23741666918063567,2
2.811320754716981,224,169,-1.1717379528331873,-0.23741666918063567,2
2.8144654088050314,223,171,1.5141243185310704,1.9256225441710906,2
2.817610062893082,225,170,1.1619834318307554,-1.4201720761158036,2
2.8207547169811322,225,170,1.1619834318307554,-1.4201720761158036,2
2.8238993710691824,226,170,1.8225102644852982,-2.9296887518564905,2
2.827044025157233,225,169,-0.5112111201786447,-1.7469333449213231,2
2.8301886792452833,224,169,-1.1717379528331873,-0.23741666918063567,2
2.8333333333333335,224,169,-1.1717379528331873,-0.23741666918063567,2
2.8364779874213837,224,170,0.5014565991762129,0.08934459962488378,2
2.8396226415094343,225,170,1.1619834318307554,-1.4201720761158036,2
2.8427672955974845,225,170,1.1619834318307554,-1.4201720761158036,2
2.8459119496855347,225,169,-0.5112111201786447,-1.7469333449213231,2
2.849056603773585,224,169,-1.1717379528331873,-0.23741666918063567,2
2.8522012578616356,223,170,-0.15907023347832971,1.598861275365571,2
2.855345911949686,223,171,1.5141243185310704,1.9256225441710906,2
2.858490566037736,225,170,1.1619834318307554,-1.4201720761158036,2
2.861635220125786,224,169,-1.1717379528331873,-0.23741666918063567,2
2.864779874213837,224,170,0.5014565991762129,0.08934459962488378,2
2.867924528301887,224,170,0.5014565991762129,0.08934459962488378,2
2.8710691823899372,224,169,-1.1717379528331873,-0.23741666918063567,2
2.8742138364779874,224,169,-1.1717379528331873,-0.23741666918063567,2
2.877358490566038,223,171,1.5141243185310704,1.9256225441710906,2
2.8805031446540883,225,170,1.1619834318307554,-1.4201720761158036,2
2.8836477987421385,224,170,0.5014565991762129,0.08934459962488378,2
2.8867924528301887,225,170,1.1619834318307554,-1.4201720761158036,2
2.8899371069182394,224,170,0.5014565991762129,0.08934459962488378,2
2.8930817610062896,224,169,-1.1717379528331873,-0.23741666918063567,2
2.8962264150943398,225,170,1.1619834318307554,-1.4201720761158036,2
2.89937106918239,224,169,-1.1717379528331873,-0.23741666918063567,2
2.9025157232704406,225,169,-0.5112111201786447,-1.7469333449213231,2
2.905660377358491,224,169,-1.1717379528331873,-0.23741666918063567,2
2.908805031446541,224,169,-1.1717379528331873,-0.23741666918063567,2
2.911949685534591,224,170,0.5014565991762129,0.08934459962488378,2
2.915094339622642,224,169,-1.1717379528331873,-0.23741666918063567,2
2.918238993710692,223,170,-0.15907023347832971,1.598861275365571,2
2.9213836477987423,223,170,-0.15907023347832971,1.598861275365571,2
2.9245283018867925,223,170,-0.15907023347832971,1.598861275365571,2
2.927672955974843,225,170,1.1619834318307554,-1.4201720761158036,2
2.9308176100628933,225,170,1.1619834318307554,-1.4201720761158036,2
2.9339622641509435,225,169,-0.5112111201786447,-1.7469333449213231,2
2.9371069182389937,224,169,-1.1717379528331873,-0.23741666918063567,2
2.9402515723270444,223,170,-0.15907023347832971,1.598861275365571,2
2.9433962264150946,225,170,1.1619834318307554,-1.4201720761158036,2
2.9465408805031448,224,169,-1.1717379528331873,-0.23741666918063567,2
2.949685534591195,224,170,0.5014565991762129,0.08934459962488378,2
2.9528301886792456,224,170,0.5014565991762129,0.08934459962488378,2
2.955974842767296,224,169,-1.1717379528331873,-0.23741666918063567,2
2.959119496855346,223,170,-0.15907023347832971,1.598861275365571,2
2.9622641509433962,224,170,0.5014565991762129,0.08934459962488378,2
2.965408805031447,224,169,-1.1717379528331873,-0.23741666918063567,2
2.968553459119497,224,169,-1.1717379528331873,-0.23741666918063567,2
2.9716981132075473,225,170,1.1619834318307554,-1.4201720761158036,2
2.9748427672955975,226,170,1.8225102644852982,-2.9296887518564905,2
2.977987421383648,225,170,1.1619834318307554,-1.4201720761158036,2
2.9811320754716983,224,169,-1.1717379528331873,-0.23741666918063567,2
2.9842767295597485,224,169,-1.1717379528331873,-0.23741666918063567,2
2.9874213836477987,224,169,-1.1717379528331873,-0.23741666918063567,2
2.9905660377358494,224,170,0.5014565991762129,0.08934459962488378,2
2.9937106918238996,224,170,0.5014565991762129,0.08934459962488378,2
2.99685534591195,224,170,0.5014565991762129,0.08934459962488378,2
3.0,224,170,0.5014565991762129,0.08934459962488378,2
3.0031446540880506,224,169,-1.1717379528331873,-0.23741666918063567,2
3.006289308176101,223,170,-0.15907023347832971,1.598861275365571,2
3.009433962264151,224,170,0.5014565991762129,0.08934459962488378,2
3.0125786163522013,224,169,-1.1717379528331873,-0.23741666918063567,2
3.015723270440252,224,170,0.5014565991762129,0.08934459962488378,2
3.018867924528302,225,170,1.1619834318307554,-1.4201720761158036,2
3.0220125786163523,224,169,-1.1717379528331873,-0.23741666918063567,2
3.0251572327044025,224,169,-1.1717379528331873,-0.23741666918063567,2
3.028301886792453,224,169,-1.1717379528331873,-0.23741666918063567,2
3.0314465408805034,223,170,-0.15907023347832971,1.598861275365571,2
3.0345911949685536,225,170,1.1619834318307554,-1.4201720761158036,2
3.0377358490566038,224,169,-1.1717379528331873,-0.23741666918063567,2
3.0408805031446544,225,170,1.1619834318307554,-1.4201720761158036,2
3.0440251572327046,225,169,-0.5112111201786447,-1.7469333449213231,2
3.047169811320755,224,169,-1.1717379528331873,-0.23741666918063567,2
3.050314465408805,224,169,-1.1717379528331873,-0.23741666918063567,2
3.0534591194968557,224,170,0.5014565991762129,0.08934459962488378,2
3.056603773584906,225,170,1.1619834318307554,-1.4201720761158036,2
3.059748427672956,224,170,0.5014565991762129,0.08934459962488378,2
3.0628930817610063,224,170,0.5014565991762129,0.08934459962488378,2
3.066037735849057,224,169,-1.1717379528331873,-0.23741666918063567,2
3.069182389937107,224,169,-1.1717379528331873,-0.23741666918063567,2
3.0723270440251573,223,170,-0.15907023347832971,1.598861275365571,2
3.0754716981132075,224,170,0.5014565991762129,0.08934459962488378,2
3.078616352201258,224,171,2.1746511511856137,0.4161058684304032,2
3.0817610062893084,224,170,0.5014565991762129,0.08934459962488378,2
3.0849056603773586,225,170,1.1619834318307554,-1.4201720761158036,2
3.088050314465409,224,169,-1.1717379528331873,-0.23741666918063567,2
3.0911949685534594,224,169,-1.1717379528331873,-0.23741666918063567,2
3.0943396226415096,223,170,-0.15907023347832971,1.598861275365571,2
3.09748427672956,225,170,1.1619834318307554,-1.4201720761158036,2
3.10062893081761,224,170,0.5014565991762129,0.08934459962488378,2
3.1037735849056607,224,169,-1.1717379528331873,-0.23741666918063567,2
3.106918238993711,225,170,1.1619834318307554,-1.4201720761158036,2
3.110062893081761,224,169,-1.1717379528331873,-0.23741666918063567,2
3.1132075471698113,224,169,-1.1717379528331873,-0.23741666918063567,2
3.116352201257862,224,169,-1.1717379528331873,-0.23741666918063567,2
3.119496855345912,223,170,-0.15907023347832971,1.598861275365571,2
3.1226415094339623,225,170,1.1619834318307554,-1.4201720761158036,2
3.1257861635220126,225,170,1.1619834318307554,-1.4201720761158036,2
3.128930817610063,225,170,1.1619834318307554,-1.4201720761158036,2
3.1320754716981134,224,170,0.5014565991762129,0.08934459962488378,2
3.1352201257861636,224,169,-1.1717379528331873,-0.23741666918063567,2
3.138364779874214,223,170,-0.15907023347832971,1.598861275365571,2
3.1415094339622645,224,170,0.5014565991762129,0.08934459962488378,2
3.1446540880503147,224,170,0.5014565991762129,0.08934459962488378,2
3.147798742138365,224,170,0.5014565991762129,0.08934459962488378,2
3.150943396226415,224,169,-1.1717379528331873,-0.23741666918063567,2
3.1540880503144657,225,170,1.1619834318307554,-1.4201720761158036,2
3.157232704402516,224,169,-1.1717379528331873,-0.23741666918063567,2
3.160377358490566,224,169,-1.1717379528331873,-0.23741666918063567,2
3.1635220125786163,223,171,1.5141243185310704,1.9256225441710906,2
3.166666666666667,225,170,1.1619834318307554,-1.4201720761158036,2
3.169811320754717,224,170,0.5014565991762129,0.08934459962488378,2
3.1729559748427674,224,170,0.5014565991762129,0.08934459962488378,2
3.1761006289308176,224,169,-1.1717379528331873,-0.23741666918063567,2
3.179245283018868,223,170,-0.15907023347832971,1.598861275365571,2
3.1823899371069184,223,170,-0.15907023347832971,1.598861275365571,2
3.1855345911949686,224,170,0.5014565991762129,0.08934459962488378,2
3.188679245283019,224,170,0.5014565991762129,0.08934459962488378,2
3.1918238993710695,224,170,0.5014565991762129,0.08934459962488378,2
3.1949685534591197,224,169,-1.1717379528331873,-0.23741666918063567,2
3.19811320754717,225,170,1.1619834318307554,-1.4201720761158036,2
3.20125786163522,224,169,-1.1717379528331873,-0.23741666918063567,2
3.2044025157232707,224,169,-1.1717379528331873,-0.23741666918063567,2
3.207547169811321,223,170,-0.15907023347832971,1.598861275365571,2
3.210691823899371,225,170,1.1619834318307554,-1.4201720761158036,2
3.2138364779874213,225,170,1.1619834318307554,-1.4201720761158036,2
3.216981132075472,225,170,1.1619834318307554,-1.4201720761158036,2
3.220125786163522,224,169,-1.1717379528331873,-0.23741666918063567,2
3.2232704402515724,224,169,-1.1717379528331873,-0.23741666918063567,2
3.226415094339623,223,170,-0.15907023347832971,1.598861275365571,2
3.2295597484276732,224,170,0.5014565991762129,0.08934459962488378,2
3.2327044025157234,224,170,0.5014565991762129,0.08934459962488378,2
3.2358490566037736,224,169,-1.1717379528331873,-0.23741666918063567,2
3.2389937106918243,224,170,0.5014565991762129,0.08934459962488378,2
3.2421383647798745,224,170,0.5014565991762129,0.08934459962488378,2
3.2452830188679247,223,170,-0.15907023347832971,1.598861275365571,2
3.248427672955975,223,170,-0.15907023347832971,1.598861275365571,2
3.2515723270440255,224,170,0.5014565991762129,0.08934459962488378,2
3.2547169811320757,224,170,0.5014565991762129,0.08934459962488378,2
3.257861635220126,225,170,1.1619834318307554,-1.4201720761158036,2
3.261006289308176,225,169,-0.5112111201786447,-1.7469333449213231,2
3.264150943396227,224,169,-1.1717379528331873,-0.23741666918063567,2
3.267295597484277,224,169,-1.1717379528331873,-0.23741666918063567,2
3.270440251572327,223,171,1.5141243185310704,1.9256225441710906,2
3.2735849056603774,225,170,1.1619834318307554,-1.4201720761158036,2
3.276729559748428,224,170,0.5014565991762129,0.08934459962488378,2
3.2798742138364783,224,169,-1.1717379528331873,-0.23741666918063567,2
3.2830188679245285,225,170,1.1619834318307554,-1.4201720761158036,2
3.2861635220125787,224,169,-1.1717379528331873,-0.23741666918063567,2
3.2893081761006293,224,169,-1.1717379528331873,-0.23741666918063567,2
3.2924528301886795,223,171,1.5141243185310704,1.9256225441710906,2
3.2955974842767297,225,170,1.1619834318307554,-1.4201720761158036,2
3.29874213836478,224,170,0.5014565991762129,0.08934459962488378,2
3.3018867924528306,224,170,0.5014565991762129,0.08934459962488378,2
3.3050314465408808,224,170,0.5014565991762129,0.08934459962488378,2
3.308176100628931,224,169,-1.1717379528331873,-0.23741666918063567,2
3.311320754716981,223,170,-0.15907023347832971,1.598861275365571,2
3.314465408805032,223,170,-0.15907023347832971,1.598861275365571,2
3.317610062893082,224,170,0.5014565991762129,0.08934459962488378,2
3.3207547169811322,224,170,0.5014565991762129,0.08934459962488378,2
3.3238993710691824,224,170,0.5014565991762129,0.08934459962488378,2
3.327044025157233,224,169,-1.1717379528331873,-0.23741666918063567,2
3.3301886792452833,224,169,-1.1717379528331873,-0.23741666918063567,2
3.3333333333333335,223,170,-0.15907023347832971,1.598861275365571,2
3.3364779874213837,224,170,0.5014565991762129,0.08934459962488378,2
3.3396226415094343,224,169,-1.1717379528331873,-0.23741666918063567,2
3.3427672955974845,225,170,1.1619834318307554,-1.4201720761158036,2
3.3459119496855347,224,170,0.5014565991762129,0.08934459962488378,2
3.349056603773585,224,169,-1.1717379528331873,-0.23741666918063567,2
3.3522012578616356,224,169,-1.1717379528331873,-0.23741666918063567,2
3.355345911949686,223,171,1.5141243185310704,1.9256225441710906,2
3.358490566037736,223,170,-0.15907023347832971,1.598861275365571,2
3.361635220125786,224,170,0.5014565991762129,0.08934459962488378,2
3.364779874213837,224,170,0.5014565991762129,0.08934459962488378,2
3.367924528301887,224,170,0.5014565991762129,0.08934459962488378,2
3.3710691823899372,224,169,-1.1717379528331873,-0.23741666918063567,2
3.3742138364779874,224,169,-1.1717379528331873,-0.23741666918063567,2
3.377358490566038,223,170,-0.15907023347832971,1.598861275365571,2
3.3805031446540883,223,171,1.5141243185310704,1.9256225441710906,2
3.3836477987421385,223,171,1.5141243185310704,1.9256225441710906,2
3.3867924528301887,224,170,0.5014565991762129,0.08934459962488378,2
3.3899371069182394,225,170,1.1619834318307554,-1.4201720761158036,2
3.3930817610062896,225,169,-0.5112111201786447,-1.7469333449213231,2
3.3962264150943398,224,169,-1.1717379528331873,-0.23741666918063567,2
3.39937106918239,223,171,1.5141243185310704,1.9256225441710906,2
3.4025157232704406,224,170,0.5014565991762129,0.08934459962488378,2
3.405660377358491,224,170,0.5014565991762129,0.08934459962488378,2
3.408805031446541,224,169,-1.1717379528331873,-0.23741666918063567,2
3.411949685534591,224,170,0.5014565991762129,0.08934459962488378,2
3.415094339622642,224,169,-1.1717379528331873,-0.23741666918063567,2
3.418238993710692,224,169,-1.1717379528331873,-0.23741666918063567,2
3.4213836477987423,223,170,-0.15907023347832971,1.598861275365571,2
3.4245283018867925,224,169,-1.1717379528331873,-0.23741666918063567,2
3.427672955974843,225,170,1.1619834318307554,-1.4201720761158036,2
3.4308176100628933,224,170,0.5014565991762129,0.08934459962488378,2
3.4339622641509435,224,170,0.5014565991762129,0.08934459962488378,2
3.4371069182389937,224,170,0.5014565991762129,0.08934459962488378,2
3.4402515723270444,224,169,-1.1717379528331873,-0.23741666918063567,2
3.4433962264150946,223,170,-0.15907023347832971,1.598861275365571,2
3.4465408805031448,223,170,-0.15907023347832971,1.598861275365571,2
3.449685534591195,225,170,1.1619834318307554,-1.4201720761158036,2
3.4528301886792456,224,169,-1.1717379528331873,-0.23741666918063567,2
3.455974842767296,225,170,1.1619834318307554,-1.4201720761158036,2
3.459119496855346,224,170,0.5014565991762129,0.08934459962488378,2
3.4622641509433962,224,169,-1.1717379528331873,-0.23741666918063567,2
3.465408805031447,223,170,-0.15907023347832971,1.598861275365571,2
3.468553459119497,224,169,-1.1717379528331873,-0.23741666918063567,2
3.4716981132075473,223,171,1.5141243185310704,1.9256225441710906,2
3.4748427672955975,224,170,0.5014565991762129,0.08934459962488378,2
3.477987421383648,225,170,1.1619834318307554,-1.4201720761158036,2
3.4811320754716983,224,170,0.5014565991762129,0.08934459962488378,2
3.4842767295597485,224,169,-1.1717379528331873,-0.23741666918063567,2
3.4874213836477987,223,170,-0.15907023347832971,1.598861275365571,2
3.4905660377358494,224,170,0.5014565991762129,0.08934459962488378,2
3.4937106918238996,224,170,0.5014565991762129,0.08934459962488378,2
3.49685534591195,224,169,-1.1717379528331873,-0.23741666918063567,2
3.5,225,170,1.1619834318307554,-1.4201720761158036,2
3.5031446540880506,224,170,0.5014565991762129,0.08934459962488378,2
3.506289308176101,224,169,-1.1717379528331873,-0.23741666918063567,2
3.509433962264151,223,170,-0.15907023347832971,1.598861275365571,2
3.5125786163522013,224,170,0.5014565991762129,0.08934459962488378,2
3.515723270440252,224,170,0.5014565991762129,0.08934459962488378,2
3.518867924528302,224,169,-1.1717379528331873,-0.23741666918063567,2
3.5220125786163523,225,170,1.1619834318307554,-1.4201720761158036,2
3.5251572327044025,224,169,-1.1717379528331873,-0.23741666918063567,2
3.528301886792453,224,169,-1.1717379528331873,-0.23741666918063567,2
3.5314465408805034,224,169,-1.1717379528331873,-0.23741666918063567,2
3.5345911949685536,223,171,1.5141243185310704,1.9256225441710906,2
3.5377358490566038,225,170,1.1619834318307554,-1.4201720761158036,2
3.5408805031446544,224,170,0.5014565991762129,0.08934459962488378,2
3.5440251572327046,224,170,0.5014565991762129,0.08934459962488378,2
3.547169811320755,224,170,0.5014565991762129,0.08934459962488378,2
3.550314465408805,223,170,-0.15907023347832971,1.598861275365571,2
3.5534591194968557,223,171,1.5141243185310704,1.9256225441710906,2
3.556603773584906,223,169,-1.83226478548773,1.2721000065600516,2
3.559748427672956,225,170,1.1619834318307554,-1.4201720761158036,2
3.5628930817610063,224,170,0.5014565991762129,0.08934459962488378,2
3.566037735849057,224,169,-1.1717379528331873,-0.23741666918063567,2
3.569182389937107,224,169,-1.1717379528331873,-0.23741666918063567,2
3.5723270440251573,224,170,0.5014565991762129,0.08934459962488378,2
3.5754716981132075,223,170,-0.15907023347832971,1.598861275365571,2
3.578616352201258,223,170,-0.15907023347832971,1.598861275365571,2
3.5817610062893084,224,170,0.5014565991762129,0.08934459962488378,2
3.5849056603773586,224,170,0.5014565991762129,0.08934459962488378,2
3.588050314465409,224,169,-1.1717379528331873,-0.23741666918063567,2
3.5911949685534594,224,169,-1.1717379528331873,-0.23741666918063567,2
3.5943396226415096,223,170,-0.15907023347832971,1.598861275365571,2
3.59748427672956,223,171,1.5141243185310704,1.9256225441710906,2
3.60062893081761,223,170,-0.15907023347832971,1.598861275365571,2
3.6037735849056607,224,170,0.5014565991762129,0.08934459962488378,2
3.606918238993711,224,170,0.5014565991762129,0.08934459962488378,2
3.610062893081761,225,170,1.1619834318307554,-1.4201720761158036,2
3.6132075471698113,224,169,-1.1717379528331873,-0.23741666918063567,2
3.616352201257862,224,169,-1.1717379528331873,-0.23741666918063567,2
3.619496855345912,224,169,-1.1717379528331873,-0.23741666918063567,2
3.6226415094339623,224,170,0.5014565991762129,0.08934459962488378,2
3.625786163522013,224,169,-1.1717379528331873,-0.23741666918063567,2
3.628930817610063,224,170,0.5014565991762129,0.08934459962488378,2
3.6320754716981134,224,170,0.5014565991762129,0.08934459962488378,2
3.6352201257861636,224,169,-1.1717379528331873,-0.23741666918063567,2
3.6383647798742142,223,170,-0.15907023347832971,1.598861275365571,2
3.6415094339622645,224,169,-1.1717379528331873,-0.23741666918063567,2
3.6446540880503147,224,169,-1.1717379528331873,-0.23741666918063567,2
3.647798742138365,224,170,0.5014565991762129,0.08934459962488378,2
3.6509433962264155,225,170,1.1619834318307554,-1.4201720761158036,2
3.6540880503144657,225,170,1.1619834318307554,-1.4201720761158036,2
3.657232704402516,225,169,-0.5112111201786447,-1.7469333449213231,2
3.660377358490566,224,169,-1.1717379528331873,-0.23741666918063567,2
3.6635220125786168,224,169,-1.1717379528331873,-0.23741666918063567,2
3.666666666666667,224,170,0.5014565991762129,0.08934459962488378,2
3.669811320754717,225,170,1.1619834318307554,-1.4201720761158036,2
3.6729559748427674,224,169,-1.1717379528331873,-0.23741666918063567,2
3.676100628930818,225,169,-0.5112111201786447,-1.7469333449213231,2
3.679245283018868,224,169,-1.1717379528331873,-0.23741666918063567,2
3.6823899371069184,224,169,-1.1717379528331873,-0.23741666918063567,2
3.6855345911949686,224,169,-1.1717379528331873,-0.23741666918063567,2
3.6886792452830193,223,170,-0.15907023347832971,1.598861275365571,2
3.6918238993710695,225,170,1.1619834318307554,-1.4201720761158036,2
3.6949685534591197,224,170,0.5014565991762129,0.08934459962488378,2
3.69811320754717,224,169,-1.1717379528331873,-0.23741666918063567,2
3.7012578616352205,225,170,1.1619834318307554,-1.4201720761158036,2
3.7044025157232707,224,169,-1.1717379528331873,-0.23741666918063567,2
3.707547169811321,224,169,-1.1717379528331873,-0.23741666918063567,2
3.710691823899371,224,169,-1.1717379528331873,-0.23741666918063567,2
3.713836477987422,223,170,-0.15907023347832971,1.598861275365571,2
3.716981132075472,225,170,1.1619834318307554,-1.4201720761158036,2
3.720125786163522,224,170,0.5014565991762129,0.08934459962488378,2
3.7232704402515724,224,169,-1.1717379528331873,-0.23741666918063567,2
3.726415094339623,224,170,0.5014565991762129,0.08934459962488378,2
3.7295597484276732,223,170,-0.15907023347832971,1.598861275365571,2
3.7327044025157234,223,170,-0.15907023347832971,1.598861275365571,2
3.7358490566037736,225,170,1.1619834318307554,-1.4201720761158036,2
3.7389937106918243,224,170,0.5014565991762129,0.08934459962488378,2
3.7421383647798745,224,170,0.5014565991762129,0.08934459962488378,2
3.7452830188679247,224,169,-1.1717379528331873,-0.23741666918063567,2
3.748427672955975,223,170,-0.15907023347832971,1.598861275365571,2
3.7515723270440255,223,171,1.5141243185310704,1.9256225441710906,2
3.7547169811320757,224,170,0.5014565991762129,0.08934459962488378,2
3.757861635220126,224,170,0.5014565991762129,0.08934459962488378,2
3.761006289308176,224,170,0.5014565991762129,0.08934459962488378,2
3.764150943396227,225,170,1.1619834318307554,-1.4201720761158036,2
3.767295597484277,224,169,-1.1717379528331873,-0.23741666918063567,2
3.770440251572327,224,169,-1.1717379528331873,-0.23741666918063567,2
3.7735849056603774,223,169,-1.83226478548773,1.2721000065600516,2
3.776729559748428,225,170,1.1619834318307554,-1.4201720761158036,2
3.7798742138364783,224,169,-1.1717379528331873,-0.23741666918063567,2
3.7830188679245285,224,170,0.5014565991762129,0.08934459962488378,2
3.7861635220125787,224,169,-1.1717379528331873,-0.23741666918063567,2
3.7893081761006293,225,170,1.1619834318307554,-1.4201720761158036,2
3.7924528301886795,224,169,-1.1717379528331873,-0.23741666918063567,2
3.7955974842767297,224,169,-1.1717379528331873,-0.23741666918063567,2
3.79874213836478,223,171,1.5141243185310704,1.9256225441710906,2
3.8018867924528306,225,171,2.8351779838401563,-1.0934108073102842,2
3.8050314465408808,225,170,1.1619834318307554,-1.4201720761158036,2
3.808176100628931,225,170,1.1619834318307554,-1.4201720761158036,2
3.811320754716981,224,169,-1.1717379528331873,-0.23741666918063567,2
3.814465408805032,224,169,-1.1717379528331873,-0.23741666918063567,2
3.817610062893082,223,170,-0.15907023347832971,1.598861275365571,2
3.8207547169811322,225,170,1.1619834318307554,-1.4201720761158036,2
3.8238993710691824,224,170,0.5014565991762129,0.08934459962488378,2
3.827044025157233,224,169,-1.1717379528331873,-0.23741666918063567,2
3.8301886792452833,224,169,-1.1717379528331873,-0.23741666918063567,2
3.8333333333333335,223,171,1.5141243185310704,1.9256225441710906,2
3.8364779874213837,223,170,-0.15907023347832971,1.598861275365571,2
3.8396226415094343,224,170,0.5014565991762129,0.08934459962488378,2
3.8427672955974845,224,169,-1.1717379528331873,-0.23741666918063567,2
3.8459119496855347,225,170,1.1619834318307554,-1.4201720761158036,2
3.849056603773585,225,170,1.1619834318307554,-1.4201720761158036,2
3.8522012578616356,225,169,-0.5112111201786447,-1.7469333449213231,2
3.855345911949686,224,169,-1.1717379528331873,-0.23741666918063567,2
3.858490566037736,223,169,-1.83226478548773,1.2721000065600516,2
3.861635220125786,224,170,0.5014565991762129,0.08934459962488378,2
3.864779874213837,224,170,0.5014565991762129,0.08934459962488378,2
3.867924528301887,224,169,-1.1717379528331873,-0.23741666918063567,2
3.8710691823899372,225,170,1.1619834318307554,-1.4201720761158036,2
3.8742138364779874,224,170,0.5014565991762129,0.08934459962488378,2
3.877358490566038,224,169,-1.1717379528331873,-0.23741666918063567,2
3.8805031446540883,224,169,-1.1717379528331873,-0.23741666918063567,2
3.8836477987421385,223,171,1.5141243185310704,1.9256225441710906,2
3.8867924528301887,224,170,0.5014565991762129,0.08934459962488378,2
3.8899371069182394,224,169,-1.1717379528331873,-0.23741666918063567,2
3.8930817610062896,224,170,0.5014565991762129,0.08934459962488378,2
3.8962264150943398,224,169,-1.1717379528331873,-0.23741666918063567,2
3.89937106918239,224,169,-1.1717379528331873,-0.23741666918063567,2
3.9025157232704406,223,169,-1.83226478548773,1.2721000065600516,2
3.905660377358491,223,171,1.5141243185310704,1.9256225441710906,2
3.908805031446541,223,171,1.5141243185310704,1.9256225441710906,2
3.911949685534591,224,170,0.5014565991762129,0.08934459962488378,2
3.915094339622642,225,170,1.1619834318307554,-1.4201720761158036,2
3.918238993710692,224,169,-1.1717379528331873,-0.23741666918063567,2
3.9213836477987423,224,169,-1.1717379528331873,-0.23741666918063567,2
3.9245283018867925,223,170,-0.15907023347832971,1.598861275365571,2
3.927672955974843,224,170,0.5014565991762129,0.08934459962488378,2
3.9308176100628933,224,169,-1.1717379528331873,-0.23741666918063567,2
3.9339622641509435,225,170,1.1619834318307554,-1.4201720761158036,2
3.9371069182389937,226,170,1.8225102644852982,-2.9296887518564905,2
3.9402515723270444,225,169,-0.5112111201786447,-1.7469333449213231,2
3.9433962264150946,224,169,-1.1717379528331873,-0.23741666918063567,2
3.9465408805031448,223,170,-0.15907023347832971,1.598861275365571,2
3.949685534591195,224,169,-1.1717379528331873,-0.23741666918063567,2
3.9528301886792456,224,169,-1.1717379528331873,-0.23741666918063567,2
3.955974842767296,224,170,0.5014565991762129,0.08934459962488378,2
3.959119496855346,225,170,1.1619834318307554,-1.4201720761158036,2
3.9622641509433962,224,169,-1.1717379528331873,-0.23741666918063567,2
3.965408805031447,224,169,-1.1717379528331873,-0.23741666918063567,2
3.968553459119497,223,170,-0.15907023347832971,1.598861275365571,2
3.9716981132075473,224,170,0.5014565991762129,0.08934459962488378,2
3.9748427672955975,224,169,-1.1717379528331873,-0.23741666918063567,2
3.977987421383648,225,170,1.1619834318307554,-1.4201720761158036,2
3.9811320754716983,225,170,1.1619834318307554,-1.4201720761158036,2
3.9842767295597485,224,169,-1.1717379528331873,-0.23741666918063567,2
3.9874213836477987,224,169,-1.1717379528331873,-0.23741666918063567,2
3.9905660377358494,223,170,-0.15907023347832971,1.598861275365571,2
3.9937106918238996,223,170,-0.15907023347832971,1.598861275365571,2
3.99685534591195,224,170,0.5014565991762129,0.08934459962488378,2
4.0,224,169,-1.1717379528331873,-0.23741666918063567,2
4.00314465408805,224,170,0.5014565991762129,0.08934459962488378,2
4.0062893081761,225,170,1.1619834318307554,-1.4201720761158036,2
4.0094339622641515,224,169,-1.1717379528331873,-0.23741666918063567,2
4.012578616352202,224,169,-1.1717379528331873,-0.23741666918063567,2
4.015723270440252,224,169,-1.1717379528331873,-0.23741666918063567,2
4.018867924528302,223,170,-0.15907023347832971,1.598861275365571,2
4.022012578616352,223,170,-0.15907023347832971,1.598861275365571,2
4.0251572327044025,225,170,1.1619834318307554,-1.4201720761158036,2
4.028301886792453,225,169,-0.5112111201786447,-1.7469333449213231,2
4.031446540880504,224,169,-1.1717379528331873,-0.23741666918063567,2
4.034591194968554,224,169,-1.1717379528331873,-0.23741666918063567,2
4.037735849056604,224,170,0.5014565991762129,0.08934459962488378,2
4.040880503144654,224,170,0.5014565991762129,0.08934459962488378,2
4.044025157232705,224,170,0.5014565991762129,0.08934459962488378,2
4.047169811320755,224,169,-1.1717379528331873,-0.23741666918063567,2
4.050314465408805,225,170,1.1619834318307554,-1.4201720761158036,2
4.053459119496855,224,169,-1.1717379528331873,-0.23741666918063567,2
4.056603773584906,224,169,-1.1717379528331873,-0.23741666918063567,2
4.0597484276729565,223,171,1.5141243185310704,1.9256225441710906,2
4.062893081761007,224,170,0.5014565991762129,0.08934459962488378,2
4.066037735849057,224,169,-1.1717379528331873,-0.23741666918063567,2
4.069182389937107,224,169,-1.1717379528331873,-0.23741666918063567,2
4.072327044025157,224,169,-1.1717379528331873,-0.23741666918063567,2
4.0754716981132075,223,170,-0.15907023347832971,1.598861275365571,2
4.078616352201258,224,170,0.5014565991762129,0.08934459962488378,2
4.081761006289309,224,169,-1.1717379528331873,-0.23741666918063567,2
4.084905660377359,224,170,0.5014565991762129,0.08934459962488378,2
4.088050314465409,225,170,1.1619834318307554,-1.4201720761158036,2
4.091194968553459,224,170,0.5014565991762129,0.08934459962488378,2
4.09433962264151,224,169,-1.1717379528331873,-0.23741666918063567,2
4.09748427672956,224,169,-1.1717379528331873,-0.23741666918063567,2
4.10062893081761,223,170,-0.15907023347832971,1.598861275365571,2
4.10377358490566,224,170,0.5014565991762129,0.08934459962488378,2
4.106918238993711,224,169,-1.1717379528331873,-0.23741666918063567,2
4.1100628930817615,224,169,-1.1717379528331873,-0.23741666918063567,2
4.113207547169812,225,170,1.1619834318307554,-1.4201720761158036,2
4.116352201257862,224,169,-1.1717379528331873,-0.23741666918063567,2
4.119496855345912,224,169,-1.1717379528331873,-0.23741666918063567,2
4.122641509433962,223,170,-0.15907023347832971,1.598861275365571,2
4.1257861635220126,224,170,0.5014565991762129,0.08934459962488378,2
4.128930817610063,224,169,-1.1717379528331873,-0.23741666918063567,2
4.132075471698114,224,169,-1.1717379528331873,-0.23741666918063567,2
4.135220125786164,224,170,0.5014565991762129,0.08934459962488378,2
4.138364779874214,225,170,1.1619834318307554,-1.4201720761158036,2
4.1415094339622645,224,169,-1.1717379528331873,-0.23741666918063567,2
4.144654088050315,224,169,-1.1717379528331873,-0.23741666918063567,2
4.147798742138365,223,171,1.5141243185310704,1.9256225441710906,2
4.150943396226415,225,169,-0.5112111201786447,-1.7469333449213231,2
4.154088050314465,225,170,1.1619834318307554,-1.4201720761158036,2
4.157232704402516,226,170,1.8225102644852982,-2.9296887518564905,2
4.160377358490567,225,169,-0.5112111201786447,-1.7469333449213231,2
4.163522012578617,224,169,-1.1717379528331873,-0.23741666918063567,2
4.166666666666667,224,169,-1.1717379528331873,-0.23741666918063567,2
4.169811320754717,224,169,-1.1717379528331873,-0.23741666918063567,2
4.172955974842767,223,170,-0.15907023347832971,1.598861275365571,2
4.176100628930818,225,170,1.1619834318307554,-1.4201720761158036,2
4.179245283018868,225,170,1.1619834318307554,-1.4201720761158036,2
4.182389937106919,225,169,-0.5112111201786447,-1.7469333449213231,2
4.185534591194969,224,169,-1.1717379528331873,-0.23741666918063567,2
4.188679245283019,223,170,-0.15907023347832971,1.598861275365571,2
4.1918238993710695,223,170,-0.15907023347832971,1.598861275365571,2
4.19496855345912,224,170,0.5014565991762129,0.08934459962488378,2
4.19811320754717,224,170,0.5014565991762129,0.08934459962488378,2
4.20125786163522,224,169,-1.1717379528331873,-0.23741666918063567,2
4.20440251572327,224,169,-1.1717379528331873,-0.23741666918063567,2
4.207547169811321,223,170,-0.15907023347832971,1.598861275365571,2
4.210691823899372,223,171,1.5141243185310704,1.9256225441710906,2
4.213836477987422,223,171,1.5141243185310704,1.9256225441710906,2
4.216981132075472,225,170,1.1619834318307554,-1.4201720761158036,2
4.220125786163522,224,170,0.5014565991762129,0.08934459962488378,2
4.223270440251572,224,170,0.5014565991762129,0.08934459962488378,2
4.226415094339623,224,169,-1.1717379528331873,-0.23741666918063567,2
4.229559748427673,223,170,-0.15907023347832971,1.598861275365571,2
4.232704402515724,224,170,0.5014565991762129,0.08934459962488378,2
4.235849056603774,224,169,-1.1717379528331873,-0.23741666918063567,2
4.238993710691824,225,170,1.1619834318307554,-1.4201720761158036,2
4.2421383647798745,224,170,0.5014565991762129,0.08934459962488378,2
4.245283018867925,224,169,-1.1717379528331873,-0.23741666918063567,2
4.248427672955975,224,170,0.5014565991762129,0.08934459962488378,2
4.251572327044025,223,170,-0.15907023347832971,1.598861275365571,2
4.254716981132075,224,170,0.5014565991762129,0.08934459962488378,2
4.257861635220126,224,169,-1.1717379528331873,-0.23741666918063567,2
4.261006289308177,225,170,1.1619834318307554,-1.4201720761158036,2
4.264150943396227,225,170,1.1619834318307554,-1.4201720761158036,2
4.267295597484277,224,170,0.5014565991762129,0.08934459962488378,2
4.270440251572327,224,169,-1.1717379528331873,-0.23741666918063567,2
4.273584905660377,224,169,-1.1717379528331873,-0.23741666918063567,2
4.276729559748428,223,170,-0.15907023347832971,1.598861275365571,2
4.279874213836478,225,170,1.1619834318307554,-1.4201720761158036,2
4.283018867924529,224,170,0.5014565991762129,0.08934459962488378,2
4.286163522012579,224,170,0.5014565991762129,0.08934459962488378,2
4.289308176100629,224,169,-1.1717379528331873,-0.23741666918063567,2
4.2924528301886795,223,171,1.5141243185310704,1.9256225441710906,2
4.29559748427673,224,170,0.5014565991762129,0.08934459962488378,2
4.29874213836478,224,169,-1.1717379528331873,-0.23741666918063567,2
4.30188679245283,224,169,-1.1717379528331873,-0.23741666918063567,2
4.30503144654088,224,170,0.5014565991762129,0.08934459962488378,2
4.308176100628931,225,170,1.1619834318307554,-1.4201720761158036,2
4.311320754716982,224,170,0.5014565991762129,0.08934459962488378,2
4.314465408805032,224,169,-1.1717379528331873,-0.23741666918063567,2
4.317610062893082,224,169,-1.1717379528331873,-0.23741666918063567,2
4.320754716981132,224,170,0.5014565991762129,0.08934459962488378,2
4.323899371069182,224,169,-1.1717379528331873,-0.23741666918063567,2
4.327044025157233,224,169,-1.1717379528331873,-0.23741666918063567,2
4.330188679245283,225,170,1.1619834318307554,-1.4201720761158036,2
4.333333333333334,225,170,1.1619834318307554,-1.4201720761158036,2
4.336477987421384,224,169,-1.1717379528331873,-0.23741666918063567,2
4.339622641509434,224,169,-1.1717379528331873,-0.23741666918063567,2
4.3427672955974845,224,169,-1.1717379528331873,-0.23741666918063567,2
4.345911949685535,223,171,1.5141243185310704,1.9256225441710906,2
4.349056603773585,225,170,1.1619834318307554,-1.4201720761158036,2
4.352201257861635,225,170,1.1619834318307554,-1.4201720761158036,2
4.355345911949685,225,170,1.1619834318307554,-1.4201720761158036,2
4.358490566037736,224,169,-1.1717379528331873,-0.23741666918063567,2
4.361635220125787,224,169,-1.1717379528331873,-0.23741666918063567,2
4.364779874213837,223,170,-0.15907023347832971,1.598861275365571,2
4.367924528301887,225,170,1.1619834318307554,-1.4201720761158036,2
4.371069182389937,224,170,0.5014565991762129,0.08934459962488378,2
4.3742138364779874,224,170,0.5014565991762129,0.08934459962488378,2
4.377358490566038,224,169,-1.1717379528331873,-0.23741666918063567,2
4.380503144654088,224,169,-1.1717379528331873,-0.23741666918063567,2
4.383647798742139,223,170,-0.15907023347832971,1.598861275365571,2
4.386792452830189,224,170,0.5014565991762129,0.08934459962488378,2
4.389937106918239,224,169,-1.1717379528331873,-0.23741666918063567,2
4.3930817610062896,225,170,1.1619834318307554,-1.4201720761158036,2
4.39622641509434,224,170,0.5014565991762129,0.08934459962488378,2
4.39937106918239,224,170,0.5014565991762129,0.08934459962488378,2
4.40251572327044,223,170,-0.15907023347832971,1.598861275365571,2
4.40566037735849,225,170,1.1619834318307554,-1.4201720761158036,2
4.4088050314465415,224,169,-1.1717379528331873,-0.23741666918063567,2
4.411949685534592,225,170,1.1619834318307554,-1.4201720761158036,2
4.415094339622642,224,170,0.5014565991762129,0.08934459962488378,2
4.418238993710692,224,169,-1.1717379528331873,-0.23741666918063567,2
4.421383647798742,224,169,-1.1717379528331873,-0.23741666918063567,2
4.4245283018867925,224,169,-1.1717379528331873,-0.23741666918063567,2
4.427672955974843,223,171,1.5141243185310704,1.9256225441710906,2
4.430817610062894,223,170,-0.15907023347832971,1.598861275365571,2
4.433962264150944,224,170,0.5014565991762129,0.08934459962488378,2
4.437106918238994,224,170,0.5014565991762129,0.08934459962488378,2
4.440251572327044,224,170,0.5014565991762129,0.08934459962488378,2
4.443396226415095,224,169,-1.1717379528331873,-0.23741666918063567,2
4.446540880503145,224,169,-1.1717379528331873,-0.23741666918063567,2
4.449685534591195,223,170,-0.15907023347832971,1.598861275365571,2
4.452830188679245,224,170,0.5014565991762129,0.08934459962488378,2
4.455974842767296,224,171,2.1746511511856137,0.4161058684304032,2
4.4591194968553465,224,170,0.5014565991762129,0.08934459962488378,2
4.462264150943397,225,170,1.1619834318307554,-1.4201720761158036,2
4.465408805031447,225,170,1.1619834318307554,-1.4201720761158036,2
4.468553459119497,224,170,0.5014565991762129,0.08934459962488378,2
4.471698113207547,224,169,-1.1717379528331873,-0.23741666918063567,2
4.4748427672955975,224,169,-1.1717379528331873,-0.23741666918063567,2
4.477987421383648,223,170,-0.15907023347832971,1.598861275365571,2
4.481132075471699,224,169,-1.1717379528331873,-0.23741666918063567,2
4.484276729559749,225,170,1.1619834318307554,-1.4201720761158036,2
4.487421383647799,224,170,0.5014565991762129,0.08934459962488378,2
4.490566037735849,224,169,-1.1717379528331873,-0.23741666918063567,2
4.4937106918239,223,170,-0.15907023347832971,1.598861275365571,2
4.49685534591195,224,170,0.5014565991762129,0.08934459962488378,2
4.5,224,169,-1.1717379528331873,-0.23741666918063567,2
4.50314465408805,224,169,-1.1717379528331873,-0.23741666918063567,2
4.506289308176101,225,170,1.1619834318307554,-1.4201720761158036,2
4.5094339622641515,224,170,0.5014565991762129,0.08934459962488378,2
4.512578616352202,224,169,-1.1717379528331873,-0.23741666918063567,2
4.515723270440252,223,171,1.5141243185310704,1.9256225441710906,2
4.518867924528302,223,170,-0.15907023347832971,1.598861275365571,2
4.522012578616352,224,170,0.5014565991762129,0.08934459962488378,2
4.5251572327044025,224,170,0.5014565991762129,0.08934459962488378,2
4.528301886792453,224,170,0.5014565991762129,0.08934459962488378,2
4.531446540880504,224,170,0.5014565991762129,0.08934459962488378,2
4.534591194968554,223,170,-0.15907023347832971,1.598861275365571,2
4.537735849056604,224,170,0.5014565991762129,0.08934459962488378,2
4.540880503144654,224,169,-1.1717379528331873,-0.23741666918063567,2
4.544025157232705,224,170,0.5014565991762129,0.08934459962488378,2
4.547169811320755,224,170,0.5014565991762129,0.08934459962488378,2
4.550314465408805,224,170,0.5014565991762129,0.08934459962488378,2
4.553459119496855,225,170,1.1619834318307554,-1.4201720761158036,2
4.556603773584906,224,169,-1.1717379528331873,-0.23741666918063567,2
4.5597484276729565,223,170,-0.15907023347832971,1.598861275365571,2
4.562893081761007,223,170,-0.15907023347832971,1.598861275365571,2
4.566037735849057,224,170,0.5014565991762129,0.08934459962488378,2
4.569182389937107,224,169,-1.1717379528331873,-0.23741666918063567,2
4.572327044025157,224,169,-1.1717379528331873,-0.23741666918063567,2
4.5754716981132075,224,169,-1.1717379528331873,-0.23741666918063567,2
4.578616352201258,223,170,-0.15907023347832971,1.598861275365571,2
4.581761006289309,223,171,1.5141243185310704,1.9256225441710906,2
4.584905660377359,224,170,0.5014565991762129,0.08934459962488378,2
4.588050314465409,224,170,0.5014565991762129,0.08934459962488378,2
4.591194968553459,225,170,1.1619834318307554,-1.4201720761158036,2
4.59433962264151,225,170,1.1619834318307554,-1.4201720761158036,2
4.59748427672956,224,169,-1.1717379528331873,-0.23741666918063567,2
4.60062893081761,224,169,-1.1717379528331873,-0.23741666918063567,2
4.60377358490566,223,170,-0.15907023347832971,1.598861275365571,2
4.606918238993711,223,170,-0.15907023347832971,1.598861275365571,2
4.6100628930817615,225,170,1.1619834318307554,-1.4201720761158036,2
4.613207547169812,224,169,-1.1717379528331873,-0.23741666918063567,2
4.616352201257862,224,170,0.5014565991762129,0.08934459962488378,2
4.619496855345912,224,170,0.5014565991762129,0.08934459962488378,2
4.622641509433962,223,171,1.5141243185310704,1.9256225441710906,2
4.6257861635220126,223,170,-0.15907023347832971,1.598861275365571,2
4.628930817610063,224,170,0.5014565991762129,0.08934459962488378,2
4.632075471698114,224,170,0.5014565991762129,0.08934459962488378,2
4.635220125786164,225,170,1.1619834318307554,-1.4201720761158036,2
4.638364779874214,224,170,0.5014565991762129,0.08934459962488378,2
4.6415094339622645,224,169,-1.1717379528331873,-0.23741666918063567,2
4.644654088050315,224,169,-1.1717379528331873,-0.23741666918063567,2
4.647798742138365,224,169,-1.1717379528331873,-0.23741666918063567,2
4.650943396226415,223,171,1.5141243185310704,1.9256225441710906,2
4.654088050314465,224,170,0.5014565991762129,0.08934459962488378,2
4.657232704402516,225,170,1.1619834318307554,-1.4201720761158036,2
4.660377358490567,225,170,1.1619834318307554,-1.4201720761158036,2
4.663522012578617,224,169,-1.1717379528331873,-0.23741666918063567,2
4.666666666666667,224,169,-1.1717379528331873,-0.23741666918063567,2
4.669811320754717,223,170,-0.15907023347832971,1.598861275365571,2
4.672955974842767,224,170,0.5014565991762129,0.08934459962488378,2
4.676100628930818,224,170,0.5014565991762129,0.08934459962488378,2
4.679245283018868,224,169,-1.1717379528331873,-0.23741666918063567,2
4.682389937106919,224,170,0.5014565991762129,0.08934459962488378,2
4.685534591194969,224,169,-1.1717379528331873,-0.23741666918063567,2
4.688679245283019,223,171,1.5141243185310704,1.9256225441710906,2
4.6918238993710695,223,171,1.5141243185310704,1.9256225441710906,2
4.69496855345912,224,170,0.5014565991762129,0.08934459962488378,2
4.69811320754717,224,169,-1.1717379528331873,-0.23741666918063567,2
4.70125786163522,225,170,1.1619834318307554,-1.4201720761158036,2
4.70440251572327,225,170,1.1619834318307554,-1.4201720761158036,2
4.707547169811321,224,169,-1.1717379528331873,-0.23741666918063567,2
4.710691823899372,223,170,-0.15907023347832971,1.598861275365571,2
4.713836477987422,223,171,1.5141243185310704,1.9256225441710906,2
4.716981132075472,224,170,0.5014565991762129,0.08934459962488378,2
4.720125786163522,224,169,-1.1717379528331873,-0.23741666918063567,2
4.723270440251572,224,171,2.1746511511856137,0.4161058684304032,2
4.726415094339623,224,170,0.5014565991762129,0.08934459962488378,2
4.729559748427673,225,170,1.1619834318307554,-1.4201720761158036,2
4.732704402515724,224,169,-1.1717379528331873,-0.23741666918063567,2
4.735849056603774,223,170,-0.15907023347832971,1.598861275365571,2
4.738993710691824,225,170,1.1619834318307554,-1.4201720761158036,2
4.7421383647798745,224,170,0.5014565991762129,0.08934459962488378,2
4.745283018867925,224,170,0.5014565991762129,0.08934459962488378,2
4.748427672955975,224,169,-1.1717379528331873,-0.23741666918063567,2
4.751572327044025,223,171,1.5141243185310704,1.9256225441710906,2
4.754716981132075,223,170,-0.15907023347832971,1.598861275365571,2
4.757861635220126,224,170,0.5014565991762129,0.08934459962488378,2
4.761006289308177,224,169,-1.1717379528331873,-0.23741666918063567,2
4.764150943396227,225,170,1.1619834318307554,-1.4201720761158036,2
4.767295597484277,225,169,-0.5112111201786447,-1.7469333449213231,2
4.770440251572327,224,170,0.5014565991762129,0.08934459962488378,2
4.773584905660377,224,169,-1.1717379528331873,-0.23741666918063567,2
4.776729559748428,223,170,-0.15907023347832971,1.598861275365571,2
4.779874213836478,223,171,1.5141243185310704,1.9256225441710906,2
4.783018867924529,223,171,1.5141243185310704,1.9256225441710906,2
4.786163522012579,225,170,1.1619834318307554,-1.4201720761158036,2
4.789308176100629,225,170,1.1619834318307554,-1.4201720761158036,2
4.7924528301886795,224,170,0.5014565991762129,0.08934459962488378,2
4.79559748427673,224,169,-1.1717379528331873,-0.23741666918063567,2
4.79874213836478,223,170,-0.15907023347832971,1.598861275365571,2
4.80188679245283,223,171,1.5141243185310704,1.9256225441710906,2
4.80503144654088,224,170,0.5014565991762129,0.08934459962488378,2
4.808176100628931,224,170,0.5014565991762129,0.08934459962488378,2
4.811320754716982,224,170,0.5014565991762129,0.08934459962488378,2
4.814465408805032,224,170,0.5014565991762129,0.08934459962488378,2
4.817610062893082,225,170,1.1619834318307554,-1.4201720761158036,2
4.820754716981132,224,169,-1.1717379528331873,-0.23741666918063567,2
4.823899371069182,224,169,-1.1717379528331873,-0.23741666918063567,2
4.827044025157233,225,170,1.1619834318307554,-1.4201720761158036,2
4.830188679245284,224,169,-1.1717379528331873,-0.23741666918063567,2
4.833333333333334,224,170,0.5014565991762129,0.08934459962488378,2
4.836477987421384,224,170,0.5014565991762129,0.08934459962488378,2
4.839622641509434,225,170,1.1619834318307554,-1.4201720761158036,2
4.8427672955974845,224,169,-1.1717379528331873,-0.23741666918063567,2
4.845911949685535,224,169,-1.1717379528331873,-0.23741666918063567,2
4.849056603773585,224,170,0.5014565991762129,0.08934459962488378,2
4.852201257861635,224,169,-1.1717379528331873,-0.23741666918063567,2
4.855345911949686,225,170,1.1619834318307554,-1.4201720761158036,2
4.858490566037736,224,170,0.5014565991762129,0.08934459962488378,2
4.861635220125787,224,169,-1.1717379528331873,-0.23741666918063567,2
4.864779874213837,223,171,1.5141243185310704,1.9256225441710906,2
4.867924528301887,223,169,-1.83226478548773,1.2721000065600516,2
4.871069182389937,223,171,1.5141243185310704,1.9256225441710906,2
4.8742138364779874,225,170,1.1619834318307554,-1.4201720761158036,2
4.877358490566038,225,170,1.1619834318307554,-1.4201720761158036,2
4.880503144654089,225,170,1.1619834318307554,-1.4201720761158036,2
4.883647798742139,224,169,-1.1717379528331873,-0.23741666918063567,2
4.886792452830189,224,169,-1.1717379528331873,-0.23741666918063567,2
4.889937106918239,223,170,-0.15907023347832971,1.598861275365571,2
4.8930817610062896,224,170,0.5014565991762129,0.08934459962488378,2
4.89622641509434,223,169,-1.83226478548773,1.2721000065600516,2
4.89937106918239,225,170,1.1619834318307554,-1.4201720761158036,2
4.90251572327044,224,169,-1.1717379528331873,-0.23741666918063567,2
4.905660377358491,224,171,2.1746511511856137,0.4161058684304032,2
4.9088050314465415,224,169,-1.1717379528331873,-0.23741666918063567,2
4.911949685534592,223,171,1.5141243185310704,1.9256225441710906,2
4.915094339622642,225,170,1.1619834318307554,-1.4201720761158036,2
4.918238993710692,224,169,-1.1717379528331873,-0.23741666918063567,2
4.921383647798742,224,170,0.5014565991762129,0.08934459962488378,2
4.9245283018867925,224,169,-1.1717379528331873,-0.23741666918063567,2
4.927672955974843,224,170,0.5014565991762129,0.08934459962488378,2
4.930817610062894,223,170,-0.15907023347832971,1.598861275365571,2
4.933962264150944,223,171,1.5141243185310704,1.9256225441710906,2
4.937106918238994,224,170,0.5014565991762129,0.08934459962488378,2
4.940251572327044,224,170,0.5014565991762129,0.08934459962488378,2
4.943396226415095,224,170,0.5014565991762129,0.08934459962488378,2
4.946540880503145,224,170,0.5014565991762129,0.08934459962488378,2
4.949685534591195,224,170,0.5014565991762129,0.08934459962488378,2
4.952830188679245,223,170,-0.15907023347832971,1.598861275365571,2
4.955974842767296,224,170,0.5014565991762129,0.08934459962488378,2
4.9591194968553465,224,169,-1.1717379528331873,-0.23741666918063567,2
4.962264150943397,225,170,1.1619834318307554,-1.4201720761158036,2
4.965408805031447,225,170,1.1619834318307554,-1.4201720761158036,2
4.968553459119497,225,169,-0.5112111201786447,-1.7469333449213231,2
4.971698113207547,224,169,-1.1717379528331873,-0.23741666918063567,2
4.9748427672955975,224,169,-1.1717379528331873,-0.23741666918063567,2
4.977987421383648,223,169,-1.83226478548773,1.2721000065600516,2
4.981132075471699,224,170,0.5014565991762129,0.08934459962488378,2
4.984276729559749,225,170,1.1619834318307554,-1.4201720761158036,2
4.987421383647799,224,170,0.5014565991762129,0.08934459962488378,2
4.990566037735849,224,169,-1.1717379528331873,-0.23741666918063567,2
4.9937106918239,224,169,-1.1717379528331873,-0.23741666918063567,2
4.99685534591195,223,170,-0.15907023347832971,1.598861275365571,2
5.0,224,170,0.5014565991762129,0.08934459962488378,2
5.00314465408805,224,169,-1.1717379528331873,-0.23741666918063567,2
5.006289308176101,224,170,0.5014565991762129,0.08934459962488378,2
5.0094339622641515,225,170,1.1619834318307554,-1.4201720761158036,2
5.012578616352202,224,169,-1.1717379528331873,-0.23741666918063567,2
5.015723270440252,224,169,-1.1717379528331873,-0.23741666918063567,2
5.018867924528302,224,169,-1.1717379528331873,-0.23741666918063567,2
5.022012578616352,223,170,-0.15907023347832971,1.598861275365571,2
5.0251572327044025,225,170,1.1619834318307554,-1.4201720761158036,2
5.028301886792453,224,170,0.5014565991762129,0.08934459962488378,2
5.031446540880504,224,170,0.5014565991762129,0.08934459962488378,2
5.034591194968554,224,170,0.5014565991762129,0.08934459962488378,2
5.037735849056604,223,171,1.5141243185310704,1.9256225441710906,2
5.040880503144654,223,169,-1.83226478548773,1.2721000065600516,2
5.044025157232705,224,170,0.5014565991762129,0.08934459962488378,2
5.047169811320755,224,169,-1.1717379528331873,-0.23741666918063567,2
5.050314465408805,225,170,1.1619834318307554,-1.4201720761158036,2
5.053459119496855,225,170,1.1619834318307554,-1.4201720761158036,2
5.056603773584906,225,169,-0.5112111201786447,-1.7469333449213231,2
5.0597484276729565,224,169,-1.1717379528331873,-0.23741666918063567,2
5.062893081761007,224,169,-1.1717379528331873,-0.23741666918063567,2
5.066037735849057,223,171,1.5141243185310704,1.9256225441710906,2
5.069182389937107,223,171,1.5141243185310704,1.9256225441710906,2
5.072327044025157,225,170,1.1619834318307554,-1.4201720761158036,2
5.0754716981132075,225,170,1.1619834318307554,-1.4201720761158036,2
5.078616352201258,225,170,1.1619834318307554,-1.4201720761158036,2
5.081761006289309,224,169,-1.1717379528331873,-0.23741666918063567,2
5.084905660377359,224,170,0.5014565991762129,0.08934459962488378,2
5.088050314465409,224,169,-1.1717379528331873,-0.23741666918063567,2
5.091194968553459,224,169,-1.1717379528331873,-0.23741666918063567,2
5.09433962264151,224,169,-1.1717379528331873,-0.23741666918063567,2
5.09748427672956,225,170,1.1619834318307554,-1.4201720761158036,2
5.10062893081761,224,169,-1.1717379528331873,-0.23741666918063567,2
5.10377358490566,224,169,-1.1717379528331873,-0.23741666918063567,2
5.106918238993711,223,170,-0.15907023347832971,1.598861275365571,2
5.1100628930817615,224,170,0.5014565991762129,0.08934459962488378,2
5.113207547169812,224,169,-1.1717379528331873,-0.23741666918063567,2
5.116352201257862,224,170,0.5014565991762129,0.08934459962488378,2
5.119496855345912,224,170,0.5014565991762129,0.08934459962488378,2
5.122641509433962,225,170,1.1619834318307554,-1.4201720761158036,2
5.1257861635220126,224,169,-1.1717379528331873,-0.23741666918063567,2
5.128930817610063,224,169,-1.1717379528331873,-0.23741666918063567,2
5.132075471698114,223,170,-0.15907023347832971,1.598861275365571,2
5.135220125786164,225,170,1.1619834318307554,-1.4201720761158036,2
5.138364779874214,224,170,0.5014565991762129,0.08934459962488378,2
5.1415094339622645,224,170,0.5014565991762129,0.08934459962488378,2
5.144654088050315,224,169,-1.1717379528331873,-0.23741666918063567,2
5.147798742138365,223,169,-1.83226478548773,1.2721000065600516,2
5.150943396226415,223,170,-0.15907023347832971,1.598861275365571,2
5.154088050314465,224,170,0.5014565991762129,0.08934459962488378,2
5.157232704402516,224,170,0.5014565991762129,0.08934459962488378,2
5.160377358490567,225,170,1.1619834318307554,-1.4201720761158036,2
5.163522012578617,225,170,1.1619834318307554,-1.4201720761158036,2
5.166666666666667,224,170,0.5014565991762129,0.08934459962488378,2
5.169811320754717,224,169,-1.1717379528331873,-0.23741666918063567,2
5.172955974842767,224,169,-1.1717379528331873,-0.23741666918063567,2
5.176100628930818,223,171,1.5141243185310704,1.9256225441710906,2
5.179245283018868,225,170,1.1619834318307554,-1.4201720761158036,2
5.182389937106919,224,170,0.5014565991762129,0.08934459962488378,2
5.185534591194969,224,169,-1.1717379528331873,-0.23741666918063567,2
5.188679245283019,225,170,1.1619834318307554,-1.4201720761158036,2
5.1918238993710695,224,169,-1.1717379528331873,-0.23741666918063567,2
5.19496855345912,224,169,-1.1717379528331873,-0.23741666918063567,2
5.19811320754717,223,171,1.5141243185310704,1.9256225441710906,2
5.20125786163522,224,170,0.5014565991762129,0.08934459962488378,2
5.20440251572327,224,170,0.5014565991762129,0.08934459962488378,2
5.207547169811321,224,169,-1.1717379528331873,-0.23741666918063567,2
5.210691823899372,224,169,-1.1717379528331873,-0.23741666918063567,2
5.213836477987422,224,169,-1.1717379528331873,-0.23741666918063567,2
5.216981132075472,223,170,-0.15907023347832971,1.598861275365571,2
5.220125786163522,224,170,0.5014565991762129,0.08934459962488378,2
5.223270440251572,224,170,0.5014565991762129,0.08934459962488378,2
5.226415094339623,224,170,0.5014565991762129,0.08934459962488378,2
5.229559748427673,224,169,-1.1717379528331873,-0.23741666918063567,2
5.232704402515724,223,170,-0.15907023347832971,1.598861275365571,2
5.235849056603774,223,171,1.5141243185310704,1.9256225441710906,2
5.238993710691824,224,170,0.5014565991762129,0.08934459962488378,2
5.2421383647798745,224,169,-1.1717379528331873,-0.23741666918063567,2
5.245283018867925,225,170,1.1619834318307554,-1.4201720761158036,2
5.248427672955975,224,170,0.5014565991762129,0.08934459962488378,2
5.251572327044025,224,170,0.5014565991762129,0.08934459962488378,2
5.254716981132076,224,169,-1.1717379528331873,-0.23741666918063567,2
5.257861635220126,223,168,-3.50545933749713,0.9453387377545323,2
5.261006289308177,223,171,1.5141243185310704,1.9256225441710906,2
5.264150943396227,225,170,1.1619834318307554,-1.4201720761158036,2
5.267295597484277,224,170,0.5014565991762129,0.08934459962488378,2
5.270440251572327,224,169,-1.1717379528331873,-0.23741666918063567,2
5.273584905660377,225,170,1.1619834318307554,-1.4201720761158036,2
5.276729559748428,224,169,-1.1717379528331873,-0.23741666918063567,2
5.279874213836479,224,169,-1.1717379528331873,-0.23741666918063567,2
5.283018867924529,223,171,1.5141243185310704,1.9256225441710906,2
5.286163522012579,223,170,-0.15907023347832971,1.598861275365571,2
5.289308176100629,225,170,1.1619834318307554,-1.4201720761158036,2
5.2924528301886795,225,170,1.1619834318307554,-1.4201720761158036,2
5.29559748427673,226,170,1.8225102644852982,-2.9296887518564905,2
5.29874213836478,225,170,1.1619834318307554,-1.4201720761158036,2
5.30188679245283,224,169,-1.1717379528331873,-0.23741666918063567,2
5.305031446540881,224,169,-1.1717379528331873,-0.23741666918063567,2
5.308176100628931,224,169,-1.1717379528331873,-0.23741666918063567,2
5.311320754716982,224,170,0.5014565991762129,0.08934459962488378,2
5.314465408805032,225,170,1.1619834318307554,-1.4201720761158036,2
5.317610062893082,224,170,0.5014565991762129,0.08934459962488378,2
5.320754716981132,224,169,-1.1717379528331873,-0.23741666918063567,2
5.323899371069182,223,170,-0.15907023347832971,1.598861275365571,2
5.327044025157233,224,170,0.5014565991762129,0.08934459962488378,2
5.330188679245284,224,169,-1.1717379528331873,-0.23741666918063567,2
5.333333333333334,225,170,1.1619834318307554,-1.4201720761158036,2
5.336477987421384,225,169,-0.5112111201786447,-1.7469333449213231,2
5.339622641509434,224,170,0.5014565991762129,0.08934459962488378,2
5.3427672955974845,224,169,-1.1717379528331873,-0.23741666918063567,2
5.345911949685535,223,171,1.5141243185310704,1.9256225441710906,2
5.349056603773585,225,170,1.1619834318307554,-1.4201720761158036,2
5.352201257861635,224,169,-1.1717379528331873,-0.23741666918063567,2
5.355345911949686,225,170,1.1619834318307554,-1.4201720761158036,2
5.358490566037736,224,169,-1.1717379528331873,-0.23741666918063567,2
5.361635220125787,224,170,0.5014565991762129,0.08934459962488378,2
5.364779874213837,224,169,-1.1717379528331873,-0.23741666918063567,2
5.367924528301887,224,169,-1.1717379528331873,-0.23741666918063567,2
5.371069182389937,223,170,-0.15907023347832971,1.598861275365571,2
5.3742138364779874,224,170,0.5014565991762129,0.08934459962488378,2
5.377358490566038,224,169,-1.1717379528331873,-0.23741666918063567,2
5.380503144654089,224,169,-1.1717379528331873,-0.23741666918063567,2
5.383647798742139,225,170,1.1619834318307554,-1.4201720761158036,2
5.386792452830189,224,169,-1.1717379528331873,-0.23741666918063567,2
5.389937106918239,224,169,-1.1717379528331873,-0.23741666918063567,2
5.3930817610062896,223,170,-0.15907023347832971,1.598861275365571,2
5.39622641509434,225,170,1.1619834318307554,-1.4201720761158036,2
5.39937106918239,224,169,-1.1717379528331873,-0.23741666918063567,2
5.40251572327044,224,169,-1.1717379528331873,-0.23741666918063567,2
5.405660377358491,225,170,1.1619834318307554,-1.4201720761158036,2
5.4088050314465415,224,169,-1.1717379528331873,-0.23741666918063567,2
5.411949685534592,224,169,-1.1717379528331873,-0.23741666918063567,2
5.415094339622642,223,170,-0.15907023347832971,1.598861275365571,2
5.418238993710692,223,171,1.5141243185310704,1.9256225441710906,2
5.421383647798742,224,170,0.5014565991762129,0.08934459962488378,2
5.4245283018867925,225,170,1.1619834318307554,-1.4201720761158036,2
5.427672955974843,224,170,0.5014565991762129,0.08934459962488378,2
5.430817610062894,224,169,-1.1717379528331873,-0.23741666918063567,2
5.433962264150944,223,171,1.5141243185310704,1.9256225441710906,2
5.437106918238994,223,171,1.5141243185310704,1.9256225441710906,2
5.440251572327044,225,170,1.1619834318307554,-1.4201720761158036,2
5.443396226415095,225,170,1.1619834318307554,-1.4201720761158036,2
5.446540880503145,225,170,1.1619834318307554,-1.4201720761158036,2
5.449685534591195,224,170,0.5014565991762129,0.08934459962488378,2
5.452830188679245,224,169,-1.1717379528331873,-0.23741666918063567,2
5.455974842767296,223,170,-0.15907023347832971,1.598861275365571,2
5.4591194968553465,224,170,0.5014565991762129,0.08934459962488378,2
5.462264150943397,224,169,-1.1717379528331873,-0.23741666918063567,2
5.465408805031447,225,170,1.1619834318307554,-1.4201720761158036,2
5.468553459119497,224,170,0.5014565991762129,0.08934459962488378,2
5.471698113207547,224,169,-1.1717379528331873,-0.23741666918063567,2
5.4748427672955975,223,170,-0.15907023347832971,1.598861275365571,2
5.477987421383648,225,170,1.1619834318307554,-1.4201720761158036,2
5.481132075471699,224,169,-1.1717379528331873,-0.23741666918063567,2
5.484276729559749,224,169,-1.1717379528331873,-0.23741666918063567,2
5.487421383647799,224,169,-1.1717379528331873,-0.23741666918063567,2
5.490566037735849,224,170,0.5014565991762129,0.08934459962488378,2
5.4937106918239,225,170,1.1619834318307554,-1.4201720761158036,2
5.49685534591195,224,169,-1.1717379528331873,-0.23741666918063567,2
5.5,224,169,-1.1717379528331873,-0.23741666918063567,2
5.50314465408805,223,170,-0.15907023347832971,1.598861275365571,2
5.506289308176101,225,170,1.1619834318307554,-1.4201720761158036,2
5.5094339622641515,224,170,0.5014565991762129,0.08934459962488378,2
5.512578616352202,224,170,0.5014565991762129,0.08934459962488378,2
5.515723270440252,224,169,-1.1717379528331873,-0.23741666918063567,2
5.518867924528302,224,169,-1.1717379528331873,-0.23741666918063567,2
5.522012578616352,223,170,-0.15907023347832971,1.598861275365571,2
5.5251572327044025,224,170,0.5014565991762129,0.08934459962488378,2
5.528301886792453,224,169,-1.1717379528331873,-0.23741666918063567,2
5.531446540880504,224,169,-1.1717379528331873,-0.23741666918063567,2
5.534591194968554,225,170,1.1619834318307554,-1.4201720761158036,2
