Timestamp,Raw_EMG1,Raw_EMG2,IC1,IC2,Label
0.0,223,171,-1.5712572560278366,-2.0037541548701623,3
0.002626970227670753,225,170,-1.1561236904775902,1.405156433668851,3
0.005253940455341506,224,170,-0.5308261583923732,-0.13786112242041698,3
0.00788091068301226,224,170,-0.5308261583923732,-0.13786112242041698,3
0.010507880910683012,224,169,1.1349024713283076,0.1850143539400599,3
0.013134851138353765,223,170,0.09447137369284385,-1.680878678509685,3
0.01576182136602452,225,169,0.5096049392430905,1.7280319100293278,3
0.01838879159369527,224,169,1.1349024713283076,0.1850143539400599,3
0.021015761821366025,224,170,-0.5308261583923732,-0.13786112242041698,3
0.023642732049036778,224,169,1.1349024713283076,0.1850143539400599,3
0.02626970227670753,225,170,-1.1561236904775902,1.405156433668851,3
0.028896672504378284,224,169,1.1349024713283076,0.1850143539400599,3
0.03152364273204904,224,169,1.1349024713283076,0.1850143539400599,3
0.03415061295971979,224,169,1.1349024713283076,0.1850143539400599,3
0.03677758318739054,223,171,-1.5712572560278366,-2.0037541548701623,3
0.0394045534150613,225,170,-1.1561236904775902,1.405156433668851,3
0.04203152364273205,224,169,1.1349024713283076,0.1850143539400599,3
0.0446584938704028,224,170,-0.5308261583923732,-0.13786112242041698,3
0.047285464098073555,224,169,1.1349024713283076,0.1850143539400599,3
0.04991243432574431,223,170,0.09447137369284385,-1.680878678509685,3
0.05253940455341506,223,171,-1.5712572560278366,-2.0037541548701623,3
0.05516637478108581,224,170,-0.5308261583923732,-0.13786112242041698,3
0.05779334500875657,224,169,1.1349024713283076,0.1850143539400599,3
0.060420315236427324,225,170,-1.1561236904775902,1.405156433668851,3
0.06304728546409807,224,170,-0.5308261583923732,-0.13786112242041698,3
0.06567425569176882,224,169,1.1349024713283076,0.1850143539400599,3
0.06830122591943957,224,169,1.1349024713283076,0.1850143539400599,3
0.07092819614711034,223,170,0.09447137369284385,-1.680878678509685,3
0.07355516637478109,223,171,-1.5712572560278366,-2.0037541548701623,3
0.07618213660245184,225,170,-1.1561236904775902,1.405156433668851,3
0.0788091068301226,225,170,-1.1561236904775902,1.405156433668851,3
0.08143607705779335,225,170,-1.1561236904775902,1.405156433668851,3
0.0840630472854641,224,169,1.1349024713283076,0.1850143539400599,3
0.08669001751313485,224,169,1.1349024713283076,0.1850143539400599,3
0.0893169877408056,223,170,0.09447137369284385,-1.680878678509685,3
0.09194395796847636,223,171,-1.5712572560278366,-2.0037541548701623,3
0.09457092819614711,225,170,-1.1561236904775902,1.405156433668851,3
0.09719789842381786,224,170,-0.5308261583923732,-0.13786112242041698,3
0.09982486865148862,224,169,1.1349024713283076,0.1850143539400599,3
0.10245183887915937,224,169,1.1349024713283076,0.1850143539400599,3
0.10507880910683012,223,171,-1.5712572560278366,-2.0037541548701623,3
0.10770577933450087,223,170,0.09447137369284385,-1.680878678509685,3
0.11033274956217162,224,170,-0.5308261583923732,-0.13786112242041698,3
0.11295971978984239,224,169,1.1349024713283076,0.1850143539400599,3
0.11558669001751314,224,170,-0.5308261583923732,-0.13786112242041698,3
0.11821366024518389,224,169,1.1349024713283076,0.1850143539400599,3
0.12084063047285465,225,170,-1.1561236904775902,1.405156433668851,3
0.1234676007005254,224,169,1.1349024713283076,0.1850143539400599,3
0.12609457092819615,224,169,1.1349024713283076,0.1850143539400599,3
0.1287215411558669,223,171,-1.5712572560278366,-2.0037541548701623,3
0.13134851138353765,224,170,-0.5308261583923732,-0.13786112242041698,3
0.1339754816112084,225,170,-1.1561236904775902,1.405156433668851,3
0.13660245183887915,224,170,-0.5308261583923732,-0.13786112242041698,3
0.13922942206654992,224,169,1.1349024713283076,0.1850143539400599,3
0.14185639229422067,223,170,0.09447137369284385,-1.680878678509685,3
0.14448336252189142,223,171,-1.5712572560278366,-2.0037541548701623,3
0.14711033274956217,225,170,-1.1561236904775902,1.405156433668851,3
0.14973730297723292,224,170,-0.5308261583923732,-0.13786112242041698,3
0.15236427320490367,224,170,-0.5308261583923732,-0.13786112242041698,3
0.15499124343257442,224,170,-0.5308261583923732,-0.13786112242041698,3
0.1576182136602452,224,171,-2.196554788113054,-0.4607365987808939,3
0.16024518388791595,224,169,1.1349024713283076,0.1850143539400599,3
0.1628721541155867,223,171,-1.5712572560278366,-2.0037541548701623,3
0.16549912434325745,224,170,-0.5308261583923732,-0.13786112242041698,3
0.1681260945709282,224,170,-0.5308261583923732,-0.13786112242041698,3
0.17075306479859895,225,170,-1.1561236904775902,1.405156433668851,3
0.1733800350262697,225,170,-1.1561236904775902,1.405156433668851,3
0.17600700525394045,224,169,1.1349024713283076,0.1850143539400599,3
0.1786339754816112,224,169,1.1349024713283076,0.1850143539400599,3
0.18126094570928197,224,170,-0.5308261583923732,-0.13786112242041698,3
0.18388791593695272,224,170,-0.5308261583923732,-0.13786112242041698,3
0.18651488616462347,225,170,-1.1561236904775902,1.405156433668851,3
0.18914185639229422,224,169,1.1349024713283076,0.1850143539400599,3
0.19176882661996497,224,169,1.1349024713283076,0.1850143539400599,3
0.19439579684763572,224,169,1.1349024713283076,0.1850143539400599,3
0.19702276707530647,223,170,0.09447137369284385,-1.680878678509685,3
0.19964973730297725,223,171,-1.5712572560278366,-2.0037541548701623,3
0.202276707530648,225,170,-1.1561236904775902,1.405156433668851,3
0.20490367775831875,224,170,-0.5308261583923732,-0.13786112242041698,3
0.2075306479859895,224,170,-0.5308261583923732,-0.13786112242041698,3
0.21015761821366025,224,169,1.1349024713283076,0.1850143539400599,3
0.212784588441331,224,169,1.1349024713283076,0.1850143539400599,3
0.21541155866900175,223,170,0.09447137369284385,-1.680878678509685,3
0.2180385288966725,224,171,-2.196554788113054,-0.4607365987808939,3
0.22066549912434325,224,170,-0.5308261583923732,-0.13786112242041698,3
0.22329246935201402,224,169,1.1349024713283076,0.1850143539400599,3
0.22591943957968477,225,170,-1.1561236904775902,1.405156433668851,3
0.22854640980735552,224,169,1.1349024713283076,0.1850143539400599,3
0.23117338003502627,224,169,1.1349024713283076,0.1850143539400599,3
0.23380035026269702,224,169,1.1349024713283076,0.1850143539400599,3
0.23642732049036777,223,171,-1.5712572560278366,-2.0037541548701623,3
0.23905429071803852,223,171,-1.5712572560278366,-2.0037541548701623,3
0.2416812609457093,225,170,-1.1561236904775902,1.405156433668851,3
0.24430823117338005,225,170,-1.1561236904775902,1.405156433668851,3
0.2469352014010508,226,170,-1.7814212225628072,2.948173989758119,3
0.24956217162872155,225,169,0.5096049392430905,1.7280319100293278,3
0.2521891418563923,224,169,1.1349024713283076,0.1850143539400599,3
0.2548161120840631,224,169,1.1349024713283076,0.1850143539400599,3
0.2574430823117338,224,170,-0.5308261583923732,-0.13786112242041698,3
0.2600700525394046,225,170,-1.1561236904775902,1.405156433668851,3
0.2626970227670753,224,170,-0.5308261583923732,-0.13786112242041698,3
0.26532399299474607,224,169,1.1349024713283076,0.1850143539400599,3
0.2679509632224168,224,169,1.1349024713283076,0.1850143539400599,3
0.27057793345008757,223,170,0.09447137369284385,-1.680878678509685,3
0.2732049036777583,224,170,-0.5308261583923732,-0.13786112242041698,3
0.27583187390542907,224,169,1.1349024713283076,0.1850143539400599,3
0.27845884413309985,224,169,1.1349024713283076,0.1850143539400599,3
0.28108581436077057,225,170,-1.1561236904775902,1.405156433668851,3
0.28371278458844135,224,169,1.1349024713283076,0.1850143539400599,3
0.28633975481611207,224,169,1.1349024713283076,0.1850143539400599,3
0.28896672504378285,224,169,1.1349024713283076,0.1850143539400599,3
0.29159369527145357,223,170,0.09447137369284385,-1.680878678509685,3
0.29422066549912435,223,170,0.09447137369284385,-1.680878678509685,3
0.2968476357267951,225,170,-1.1561236904775902,1.405156433668851,3
0.29947460595446584,224,169,1.1349024713283076,0.1850143539400599,3
0.3021015761821366,224,170,-0.5308261583923732,-0.13786112242041698,3
0.30472854640980734,224,169,1.1349024713283076,0.1850143539400599,3
0.3073555166374781,223,170,0.09447137369284385,-1.680878678509685,3
0.30998248686514884,223,171,-1.5712572560278366,-2.0037541548701623,3
0.3126094570928196,224,170,-0.5308261583923732,-0.13786112242041698,3
0.3152364273204904,224,170,-0.5308261583923732,-0.13786112242041698,3
0.3178633975481611,225,169,0.5096049392430905,1.7280319100293278,3
0.3204903677758319,225,170,-1.1561236904775902,1.405156433668851,3
0.3231173380035026,224,169,1.1349024713283076,0.1850143539400599,3
0.3257443082311734,223,170,0.09447137369284385,-1.680878678509685,3
0.3283712784588441,224,170,-0.5308261583923732,-0.13786112242041698,3
0.3309982486865149,224,170,-0.5308261583923732,-0.13786112242041698,3
0.3336252189141856,224,169,1.1349024713283076,0.1850143539400599,3
0.3362521891418564,224,170,-0.5308261583923732,-0.13786112242041698,3
0.33887915936952717,225,170,-1.1561236904775902,1.405156433668851,3
0.3415061295971979,224,169,1.1349024713283076,0.1850143539400599,3
0.34413309982486867,224,169,1.1349024713283076,0.1850143539400599,3
0.3467600700525394,224,169,1.1349024713283076,0.1850143539400599,3
0.34938704028021017,223,171,-1.5712572560278366,-2.0037541548701623,3
0.3520140105078809,225,170,-1.1561236904775902,1.405156433668851,3
0.35464098073555167,225,171,-2.821852320198271,1.082280957308374,3
0.3572679509632224,225,170,-1.1561236904775902,1.405156433668851,3
0.35989492119089317,224,169,1.1349024713283076,0.1850143539400599,3
0.36252189141856395,224,169,1.1349024713283076,0.1850143539400599,3
0.36514886164623467,223,170,0.09447137369284385,-1.680878678509685,3
0.36777583187390545,224,170,-0.5308261583923732,-0.13786112242041698,3
0.37040280210157617,224,169,1.1349024713283076,0.1850143539400599,3
0.37302977232924694,224,169,1.1349024713283076,0.1850143539400599,3
0.37565674255691767,224,170,-0.5308261583923732,-0.13786112242041698,3
0.37828371278458844,223,170,0.09447137369284385,-1.680878678509685,3
0.3809106830122592,223,171,-1.5712572560278366,-2.0037541548701623,3
0.38353765323992994,224,170,-0.5308261583923732,-0.13786112242041698,3
0.3861646234676007,224,170,-0.5308261583923732,-0.13786112242041698,3
0.38879159369527144,224,170,-0.5308261583923732,-0.13786112242041698,3
0.3914185639229422,225,170,-1.1561236904775902,1.405156433668851,3
0.39404553415061294,224,169,1.1349024713283076,0.1850143539400599,3
0.3966725043782837,224,169,1.1349024713283076,0.1850143539400599,3
0.3992994746059545,223,170,0.09447137369284385,-1.680878678509685,3
0.4019264448336252,225,170,-1.1561236904775902,1.405156433668851,3
0.404553415061296,224,169,1.1349024713283076,0.1850143539400599,3
0.4071803852889667,224,169,1.1349024713283076,0.1850143539400599,3
0.4098073555166375,224,170,-0.5308261583923732,-0.13786112242041698,3
0.4124343257443082,224,169,1.1349024713283076,0.1850143539400599,3
0.415061295971979,223,171,-1.5712572560278366,-2.0037541548701623,3
0.4176882661996497,224,170,-0.5308261583923732,-0.13786112242041698,3
0.4203152364273205,224,169,1.1349024713283076,0.1850143539400599,3
0.42294220665499127,225,170,-1.1561236904775902,1.405156433668851,3
0.425569176882662,224,170,-0.5308261583923732,-0.13786112242041698,3
0.42819614711033277,224,170,-0.5308261583923732,-0.13786112242041698,3
0.4308231173380035,224,169,1.1349024713283076,0.1850143539400599,3
0.43345008756567427,224,169,1.1349024713283076,0.1850143539400599,3
0.436077057793345,223,170,0.09447137369284385,-1.680878678509685,3
0.43870402802101577,224,170,-0.5308261583923732,-0.13786112242041698,3
0.4413309982486865,224,170,-0.5308261583923732,-0.13786112242041698,3
0.44395796847635727,224,170,-0.5308261583923732,-0.13786112242041698,3
0.44658493870402804,225,170,-1.1561236904775902,1.405156433668851,3
0.44921190893169877,224,170,-0.5308261583923732,-0.13786112242041698,3
0.45183887915936954,224,169,1.1349024713283076,0.1850143539400599,3
0.45446584938704027,223,169,1.7602000034135248,-1.3580032021492083,3
0.45709281961471104,223,171,-1.5712572560278366,-2.0037541548701623,3
0.45971978984238177,223,171,-1.5712572560278366,-2.0037541548701623,3
0.46234676007005254,225,170,-1.1561236904775902,1.405156433668851,3
0.4649737302977233,224,170,-0.5308261583923732,-0.13786112242041698,3
0.46760070052539404,224,169,1.1349024713283076,0.1850143539400599,3
0.4702276707530648,223,170,0.09447137369284385,-1.680878678509685,3
0.47285464098073554,223,170,0.09447137369284385,-1.680878678509685,3
0.4754816112084063,224,170,-0.5308261583923732,-0.13786112242041698,3
0.47810858143607704,224,170,-0.5308261583923732,-0.13786112242041698,3
0.4807355516637478,224,169,1.1349024713283076,0.1850143539400599,3
0.4833625218914186,225,170,-1.1561236904775902,1.405156433668851,3
0.4859894921190893,224,169,1.1349024713283076,0.1850143539400599,3
0.4886164623467601,224,169,1.1349024713283076,0.1850143539400599,3
0.4912434325744308,223,170,0.09447137369284385,-1.680878678509685,3
0.4938704028021016,223,170,0.09447137369284385,-1.680878678509685,3
0.4964973730297723,225,170,-1.1561236904775902,1.405156433668851,3
0.4991243432574431,224,171,-2.196554788113054,-0.4607365987808939,3
0.5017513134851138,225,170,-1.1561236904775902,1.405156433668851,3
0.5043782837127846,224,169,1.1349024713283076,0.1850143539400599,3
0.5070052539404554,224,169,1.1349024713283076,0.1850143539400599,3
0.5096322241681261,223,170,0.09447137369284385,-1.680878678509685,3
0.5122591943957968,224,170,-0.5308261583923732,-0.13786112242041698,3
0.5148861646234676,224,170,-0.5308261583923732,-0.13786112242041698,3
0.5175131348511384,224,170,-0.5308261583923732,-0.13786112242041698,3
0.5201401050788091,224,170,-0.5308261583923732,-0.13786112242041698,3
0.5227670753064798,225,170,-1.1561236904775902,1.405156433668851,3
0.5253940455341506,224,169,1.1349024713283076,0.1850143539400599,3
0.5280210157618214,224,170,-0.5308261583923732,-0.13786112242041698,3
0.5306479859894921,224,169,1.1349024713283076,0.1850143539400599,3
0.5332749562171629,225,170,-1.1561236904775902,1.405156433668851,3
0.5359019264448336,224,169,1.1349024713283076,0.1850143539400599,3
0.5385288966725044,224,170,-0.5308261583923732,-0.13786112242041698,3
0.5411558669001751,224,169,1.1349024713283076,0.1850143539400599,3
0.5437828371278459,224,170,-0.5308261583923732,-0.13786112242041698,3
0.5464098073555166,223,171,-1.5712572560278366,-2.0037541548701623,3
0.5490367775831874,225,170,-1.1561236904775902,1.405156433668851,3
0.5516637478108581,224,169,1.1349024713283076,0.1850143539400599,3
0.5542907180385289,225,170,-1.1561236904775902,1.405156433668851,3
0.5569176882661997,224,170,-0.5308261583923732,-0.13786112242041698,3
0.5595446584938704,224,169,1.1349024713283076,0.1850143539400599,3
0.5621716287215411,223,170,0.09447137369284385,-1.680878678509685,3
0.5647985989492119,224,170,-0.5308261583923732,-0.13786112242041698,3
0.5674255691768827,225,170,-1.1561236904775902,1.405156433668851,3
0.5700525394045535,224,170,-0.5308261583923732,-0.13786112242041698,3
0.5726795096322241,224,170,-0.5308261583923732,-0.13786112242041698,3
0.5753064798598949,224,170,-0.5308261583923732,-0.13786112242041698,3
0.5779334500875657,224,169,1.1349024713283076,0.1850143539400599,3
0.5805604203152365,223,171,-1.5712572560278366,-2.0037541548701623,3
0.5831873905429071,224,170,-0.5308261583923732,-0.13786112242041698,3
0.5858143607705779,224,169,1.1349024713283076,0.1850143539400599,3
0.5884413309982487,225,170,-1.1561236904775902,1.405156433668851,3
0.5910683012259195,224,170,-0.5308261583923732,-0.13786112242041698,3
0.5936952714535902,224,169,1.1349024713283076,0.1850143539400599,3
0.5963222416812609,224,169,1.1349024713283076,0.1850143539400599,3
0.5989492119089317,223,170,0.09447137369284385,-1.680878678509685,3
0.6015761821366025,224,169,1.1349024713283076,0.1850143539400599,3
0.6042031523642732,224,170,-0.5308261583923732,-0.13786112242041698,3
0.6068301225919439,225,170,-1.1561236904775902,1.405156433668851,3
0.6094570928196147,224,170,-0.5308261583923732,-0.13786112242041698,3
0.6120840630472855,224,169,1.1349024713283076,0.1850143539400599,3
0.6147110332749562,224,169,1.1349024713283076,0.1850143539400599,3
0.617338003502627,223,170,0.09447137369284385,-1.680878678509685,3
0.6199649737302977,224,170,-0.5308261583923732,-0.13786112242041698,3
0.6225919439579685,224,169,1.1349024713283076,0.1850143539400599,3
0.6252189141856392,225,170,-1.1561236904775902,1.405156433668851,3
0.62784588441331,224,170,-0.5308261583923732,-0.13786112242041698,3
0.6304728546409808,224,169,1.1349024713283076,0.1850143539400599,3
0.6330998248686515,224,169,1.1349024713283076,0.1850143539400599,3
0.6357267950963222,223,170,0.09447137369284385,-1.680878678509685,3
0.638353765323993,224,170,-0.5308261583923732,-0.13786112242041698,3
0.6409807355516638,224,169,1.1349024713283076,0.1850143539400599,3
0.6436077057793345,224,169,1.1349024713283076,0.1850143539400599,3
0.6462346760070052,224,169,1.1349024713283076,0.1850143539400599,3
0.648861646234676,224,170,-0.5308261583923732,-0.13786112242041698,3
0.6514886164623468,223,170,0.09447137369284385,-1.680878678509685,3
0.6541155866900176,223,171,-1.5712572560278366,-2.0037541548701623,3
0.6567425569176882,224,170,-0.5308261583923732,-0.13786112242041698,3
0.659369527145359,224,170,-0.5308261583923732,-0.13786112242041698,3
0.6619964973730298,224,169,1.1349024713283076,0.1850143539400599,3
0.6646234676007006,225,170,-1.1561236904775902,1.405156433668851,3
0.6672504378283712,225,170,-1.1561236904775902,1.405156433668851,3
0.669877408056042,224,169,1.1349024713283076,0.1850143539400599,3
0.6725043782837128,224,169,1.1349024713283076,0.1850143539400599,3
0.6751313485113836,223,171,-1.5712572560278366,-2.0037541548701623,3
0.6777583187390543,225,170,-1.1561236904775902,1.405156433668851,3
0.680385288966725,224,169,1.1349024713283076,0.1850143539400599,3
0.6830122591943958,224,170,-0.5308261583923732,-0.13786112242041698,3
0.6856392294220666,224,169,1.1349024713283076,0.1850143539400599,3
0.6882661996497373,224,169,1.1349024713283076,0.1850143539400599,3
0.690893169877408,223,171,-1.5712572560278366,-2.0037541548701623,3
0.6935201401050788,223,171,-1.5712572560278366,-2.0037541548701623,3
0.6961471103327496,225,170,-1.1561236904775902,1.405156433668851,3
0.6987740805604203,224,170,-0.5308261583923732,-0.13786112242041698,3
0.7014010507880911,224,170,-0.5308261583923732,-0.13786112242041698,3
0.7040280210157618,225,170,-1.1561236904775902,1.405156433668851,3
0.7066549912434326,224,169,1.1349024713283076,0.1850143539400599,3
0.7092819614711033,224,169,1.1349024713283076,0.1850143539400599,3
0.7119089316987741,223,171,-1.5712572560278366,-2.0037541548701623,3
0.7145359019264448,225,170,-1.1561236904775902,1.405156433668851,3
0.7171628721541156,224,170,-0.5308261583923732,-0.13786112242041698,3
0.7197898423817863,225,170,-1.1561236904775902,1.405156433668851,3
0.7224168126094571,224,169,1.1349024713283076,0.1850143539400599,3
0.7250437828371279,224,169,1.1349024713283076,0.1850143539400599,3
0.7276707530647986,224,169,1.1349024713283076,0.1850143539400599,3
0.7302977232924693,224,170,-0.5308261583923732,-0.13786112242041698,3
0.7329246935201401,225,170,-1.1561236904775902,1.405156433668851,3
0.7355516637478109,224,169,1.1349024713283076,0.1850143539400599,3
0.7381786339754817,224,169,1.1349024713283076,0.1850143539400599,3
0.7408056042031523,224,170,-0.5308261583923732,-0.13786112242041698,3
0.7434325744308231,224,169,1.1349024713283076,0.1850143539400599,3
0.7460595446584939,223,171,-1.5712572560278366,-2.0037541548701623,3
0.7486865148861647,224,170,-0.5308261583923732,-0.13786112242041698,3
0.7513134851138353,224,169,1.1349024713283076,0.1850143539400599,3
0.7539404553415061,225,170,-1.1561236904775902,1.405156433668851,3
0.7565674255691769,225,170,-1.1561236904775902,1.405156433668851,3
0.7591943957968477,225,169,0.5096049392430905,1.7280319100293278,3
0.7618213660245184,224,170,-0.5308261583923732,-0.13786112242041698,3
0.7644483362521891,224,169,1.1349024713283076,0.1850143539400599,3
0.7670753064798599,224,169,1.1349024713283076,0.1850143539400599,3
0.7697022767075307,224,170,-0.5308261583923732,-0.13786112242041698,3
0.7723292469352014,224,169,1.1349024713283076,0.1850143539400599,3
0.7749562171628721,225,170,-1.1561236904775902,1.405156433668851,3
0.7775831873905429,224,170,-0.5308261583923732,-0.13786112242041698,3
0.7802101576182137,224,169,1.1349024713283076,0.1850143539400599,3
0.7828371278458844,224,169,1.1349024713283076,0.1850143539400599,3
0.7854640980735552,224,170,-0.5308261583923732,-0.13786112242041698,3
0.7880910683012259,224,170,-0.5308261583923732,-0.13786112242041698,3
0.7907180385288967,224,169,1.1349024713283076,0.1850143539400599,3
0.7933450087565674,224,170,-0.5308261583923732,-0.13786112242041698,3
0.7959719789842382,224,169,1.1349024713283076,0.1850143539400599,3
0.798598949211909,223,170,0.09447137369284385,-1.680878678509685,3
0.8012259194395797,223,171,-1.5712572560278366,-2.0037541548701623,3
0.8038528896672504,223,170,0.09447137369284385,-1.680878678509685,3
0.8064798598949212,224,170,-0.5308261583923732,-0.13786112242041698,3
0.809106830122592,224,170,-0.5308261583923732,-0.13786112242041698,3
0.8117338003502627,224,170,-0.5308261583923732,-0.13786112242041698,3
0.8143607705779334,224,169,1.1349024713283076,0.1850143539400599,3
0.8169877408056042,223,170,0.09447137369284385,-1.680878678509685,3
0.819614711033275,225,170,-1.1561236904775902,1.405156433668851,3
0.8222416812609458,224,170,-0.5308261583923732,-0.13786112242041698,3
0.8248686514886164,224,169,1.1349024713283076,0.1850143539400599,3
0.8274956217162872,225,170,-1.1561236904775902,1.405156433668851,3
0.830122591943958,224,170,-0.5308261583923732,-0.13786112242041698,3
0.8327495621716288,224,169,1.1349024713283076,0.1850143539400599,3
0.8353765323992994,224,169,1.1349024713283076,0.1850143539400599,3
0.8380035026269702,223,170,0.09447137369284385,-1.680878678509685,3
0.840630472854641,223,170,0.09447137369284385,-1.680878678509685,3
0.8432574430823118,224,170,-0.5308261583923732,-0.13786112242041698,3
0.8458844133099825,224,170,-0.5308261583923732,-0.13786112242041698,3
0.8485113835376532,224,170,-0.5308261583923732,-0.13786112242041698,3
0.851138353765324,224,169,1.1349024713283076,0.1850143539400599,3
0.8537653239929948,224,169,1.1349024713283076,0.1850143539400599,3
0.8563922942206655,223,170,0.09447137369284385,-1.680878678509685,3
0.8590192644483362,223,169,1.7602000034135248,-1.3580032021492083,3
0.861646234676007,224,170,-0.5308261583923732,-0.13786112242041698,3
0.8642732049036778,224,170,-0.5308261583923732,-0.13786112242041698,3
0.8669001751313485,224,170,-0.5308261583923732,-0.13786112242041698,3
0.8695271453590193,224,169,1.1349024713283076,0.1850143539400599,3
0.87215411558669,223,171,-1.5712572560278366,-2.0037541548701623,3
0.8747810858143608,224,170,-0.5308261583923732,-0.13786112242041698,3
0.8774080560420315,224,170,-0.5308261583923732,-0.13786112242041698,3
0.8800350262697023,224,169,1.1349024713283076,0.1850143539400599,3
0.882661996497373,223,171,-1.5712572560278366,-2.0037541548701623,3
0.8852889667250438,225,170,-1.1561236904775902,1.405156433668851,3
0.8879159369527145,224,170,-0.5308261583923732,-0.13786112242041698,3
0.8905429071803853,224,169,1.1349024713283076,0.1850143539400599,3
0.8931698774080561,224,169,1.1349024713283076,0.1850143539400599,3
0.8957968476357268,224,169,1.1349024713283076,0.1850143539400599,3
0.8984238178633975,224,170,-0.5308261583923732,-0.13786112242041698,3
0.9010507880910683,224,170,-0.5308261583923732,-0.13786112242041698,3
0.9036777583187391,224,169,1.1349024713283076,0.1850143539400599,3
0.9063047285464099,225,170,-1.1561236904775902,1.405156433668851,3
0.9089316987740805,224,169,1.1349024713283076,0.1850143539400599,3
0.9115586690017513,224,169,1.1349024713283076,0.1850143539400599,3
0.9141856392294221,223,170,0.09447137369284385,-1.680878678509685,3
0.9168126094570929,225,170,-1.1561236904775902,1.405156433668851,3
0.9194395796847635,224,170,-0.5308261583923732,-0.13786112242041698,3
0.9220665499124343,224,171,-2.196554788113054,-0.4607365987808939,3
0.9246935201401051,224,169,1.1349024713283076,0.1850143539400599,3
0.9273204903677759,223,170,0.09447137369284385,-1.680878678509685,3
0.9299474605954466,224,170,-0.5308261583923732,-0.13786112242041698,3
0.9325744308231173,224,169,1.1349024713283076,0.1850143539400599,3
0.9352014010507881,224,169,1.1349024713283076,0.1850143539400599,3
0.9378283712784589,224,169,1.1349024713283076,0.1850143539400599,3
0.9404553415061296,225,170,-1.1561236904775902,1.405156433668851,3
0.9430823117338003,224,169,1.1349024713283076,0.1850143539400599,3
0.9457092819614711,224,169,1.1349024713283076,0.1850143539400599,3
0.9483362521891419,224,169,1.1349024713283076,0.1850143539400599,3
0.9509632224168126,223,171,-1.5712572560278366,-2.0037541548701623,3
0.9535901926444834,225,170,-1.1561236904775902,1.405156433668851,3
0.9562171628721541,224,170,-0.5308261583923732,-0.13786112242041698,3
0.9588441330998249,224,170,-0.5308261583923732,-0.13786112242041698,3
0.9614711033274956,224,169,1.1349024713283076,0.1850143539400599,3
0.9640980735551664,223,169,1.7602000034135248,-1.3580032021492083,3
0.9667250437828372,223,171,-1.5712572560278366,-2.0037541548701623,3
0.9693520140105079,225,170,-1.1561236904775902,1.405156433668851,3
0.9719789842381786,224,169,1.1349024713283076,0.1850143539400599,3
0.9746059544658494,224,170,-0.5308261583923732,-0.13786112242041698,3
0.9772329246935202,224,170,-0.5308261583923732,-0.13786112242041698,3
0.9798598949211909,225,169,0.5096049392430905,1.7280319100293278,3
0.9824868651488616,224,169,1.1349024713283076,0.1850143539400599,3
0.9851138353765324,224,169,1.1349024713283076,0.1850143539400599,3
0.9877408056042032,223,170,0.09447137369284385,-1.680878678509685,3
0.990367775831874,225,170,-1.1561236904775902,1.405156433668851,3
0.9929947460595446,224,169,1.1349024713283076,0.1850143539400599,3
0.9956217162872154,224,169,1.1349024713283076,0.1850143539400599,3
0.9982486865148862,224,169,1.1349024713283076,0.1850143539400599,3
1.000875656742557,223,170,0.09447137369284385,-1.680878678509685,3
1.0035026269702276,223,170,0.09447137369284385,-1.680878678509685,3
1.0061295971978985,224,170,-0.5308261583923732,-0.13786112242041698,3
1.0087565674255692,224,170,-0.5308261583923732,-0.13786112242041698,3
1.0113835376532399,224,170,-0.5308261583923732,-0.13786112242041698,3
1.0140105078809107,224,170,-0.5308261583923732,-0.13786112242041698,3
1.0166374781085814,225,170,-1.1561236904775902,1.405156433668851,3
1.0192644483362523,224,169,1.1349024713283076,0.1850143539400599,3
1.021891418563923,224,169,1.1349024713283076,0.1850143539400599,3
1.0245183887915936,223,170,0.09447137369284385,-1.680878678509685,3
1.0271453590192645,225,170,-1.1561236904775902,1.405156433668851,3
1.0297723292469352,225,170,-1.1561236904775902,1.405156433668851,3
1.032399299474606,225,170,-1.1561236904775902,1.405156433668851,3
1.0350262697022767,224,169,1.1349024713283076,0.1850143539400599,3
1.0376532399299474,224,169,1.1349024713283076,0.1850143539400599,3
1.0402802101576183,223,170,0.09447137369284385,-1.680878678509685,3
1.042907180385289,224,170,-0.5308261583923732,-0.13786112242041698,3
1.0455341506129596,224,169,1.1349024713283076,0.1850143539400599,3
1.0481611208406305,224,170,-0.5308261583923732,-0.13786112242041698,3
1.0507880910683012,224,170,-0.5308261583923732,-0.13786112242041698,3
1.053415061295972,224,169,1.1349024713283076,0.1850143539400599,3
1.0560420315236427,223,170,0.09447137369284385,-1.680878678509685,3
1.0586690017513134,224,170,-0.5308261583923732,-0.13786112242041698,3
1.0612959719789843,224,170,-0.5308261583923732,-0.13786112242041698,3
1.063922942206655,224,170,-0.5308261583923732,-0.13786112242041698,3
1.0665499124343258,224,170,-0.5308261583923732,-0.13786112242041698,3
1.0691768826619965,224,169,1.1349024713283076,0.1850143539400599,3
1.0718038528896672,225,170,-1.1561236904775902,1.405156433668851,3
1.074430823117338,224,169,1.1349024713283076,0.1850143539400599,3
1.0770577933450087,224,169,1.1349024713283076,0.1850143539400599,3
1.0796847635726796,224,170,-0.5308261583923732,-0.13786112242041698,3
1.0823117338003503,225,170,-1.1561236904775902,1.405156433668851,3
1.084938704028021,224,169,1.1349024713283076,0.1850143539400599,3
1.0875656742556918,224,170,-0.5308261583923732,-0.13786112242041698,3
1.0901926444833625,224,169,1.1349024713283076,0.1850143539400599,3
1.0928196147110332,223,170,0.09447137369284385,-1.680878678509685,3
1.095446584938704,225,170,-1.1561236904775902,1.405156433668851,3
1.0980735551663747,224,169,1.1349024713283076,0.1850143539400599,3
1.1007005253940456,224,169,1.1349024713283076,0.1850143539400599,3
1.1033274956217163,225,171,-2.821852320198271,1.082280957308374,3
1.105954465849387,225,170,-1.1561236904775902,1.405156433668851,3
1.1085814360770578,225,169,0.5096049392430905,1.7280319100293278,3
1.1112084063047285,224,169,1.1349024713283076,0.1850143539400599,3
1.1138353765323994,224,169,1.1349024713283076,0.1850143539400599,3
1.11646234676007,223,170,0.09447137369284385,-1.680878678509685,3
1.1190893169877407,225,170,-1.1561236904775902,1.405156433668851,3
1.1217162872154116,224,170,-0.5308261583923732,-0.13786112242041698,3
1.1243432574430823,224,170,-0.5308261583923732,-0.13786112242041698,3
1.1269702276707532,224,169,1.1349024713283076,0.1850143539400599,3
1.1295971978984238,223,170,0.09447137369284385,-1.680878678509685,3
1.1322241681260945,225,170,-1.1561236904775902,1.405156433668851,3
1.1348511383537654,224,169,1.1349024713283076,0.1850143539400599,3
1.137478108581436,224,169,1.1349024713283076,0.1850143539400599,3
1.140105078809107,225,170,-1.1561236904775902,1.405156433668851,3
1.1427320490367776,225,169,0.5096049392430905,1.7280319100293278,3
1.1453590192644483,224,169,1.1349024713283076,0.1850143539400599,3
1.1479859894921192,224,169,1.1349024713283076,0.1850143539400599,3
1.1506129597197898,223,171,-1.5712572560278366,-2.0037541548701623,3
1.1532399299474605,225,170,-1.1561236904775902,1.405156433668851,3
1.1558669001751314,224,170,-0.5308261583923732,-0.13786112242041698,3
1.158493870402802,224,170,-0.5308261583923732,-0.13786112242041698,3
1.161120840630473,224,169,1.1349024713283076,0.1850143539400599,3
1.1637478108581436,224,170,-0.5308261583923732,-0.13786112242041698,3
1.1663747810858143,223,171,-1.5712572560278366,-2.0037541548701623,3
1.1690017513134852,224,170,-0.5308261583923732,-0.13786112242041698,3
1.1716287215411558,224,169,1.1349024713283076,0.1850143539400599,3
1.1742556917688267,225,170,-1.1561236904775902,1.405156433668851,3
1.1768826619964974,225,170,-1.1561236904775902,1.405156433668851,3
1.179509632224168,225,169,0.5096049392430905,1.7280319100293278,3
1.182136602451839,224,169,1.1349024713283076,0.1850143539400599,3
1.1847635726795096,223,169,1.7602000034135248,-1.3580032021492083,3
1.1873905429071805,224,169,1.1349024713283076,0.1850143539400599,3
1.1900175131348512,223,171,-1.5712572560278366,-2.0037541548701623,3
1.1926444833625218,225,170,-1.1561236904775902,1.405156433668851,3
1.1952714535901927,224,170,-0.5308261583923732,-0.13786112242041698,3
1.1978984238178634,224,169,1.1349024713283076,0.1850143539400599,3
1.2005253940455343,224,169,1.1349024713283076,0.1850143539400599,3
1.203152364273205,224,169,1.1349024713283076,0.1850143539400599,3
1.2057793345008756,223,170,0.09447137369284385,-1.680878678509685,3
1.2084063047285465,224,170,-0.5308261583923732,-0.13786112242041698,3
1.2110332749562172,224,170,-0.5308261583923732,-0.13786112242041698,3
1.2136602451838878,224,170,-0.5308261583923732,-0.13786112242041698,3
1.2162872154115587,224,169,1.1349024713283076,0.1850143539400599,3
1.2189141856392294,224,170,-0.5308261583923732,-0.13786112242041698,3
1.2215411558669003,223,169,1.7602000034135248,-1.3580032021492083,3
1.224168126094571,223,171,-1.5712572560278366,-2.0037541548701623,3
1.2267950963222416,225,170,-1.1561236904775902,1.405156433668851,3
1.2294220665499125,224,170,-0.5308261583923732,-0.13786112242041698,3
1.2320490367775832,224,170,-0.5308261583923732,-0.13786112242041698,3
1.234676007005254,224,169,1.1349024713283076,0.1850143539400599,3
1.2373029772329247,224,169,1.1349024713283076,0.1850143539400599,3
1.2399299474605954,223,170,0.09447137369284385,-1.680878678509685,3
1.2425569176882663,224,170,-0.5308261583923732,-0.13786112242041698,3
1.245183887915937,224,170,-0.5308261583923732,-0.13786112242041698,3
1.2478108581436078,225,170,-1.1561236904775902,1.405156433668851,3
1.2504378283712785,225,170,-1.1561236904775902,1.405156433668851,3
1.2530647985989491,225,170,-1.1561236904775902,1.405156433668851,3
1.25569176882662,224,169,1.1349024713283076,0.1850143539400599,3
1.2583187390542907,224,169,1.1349024713283076,0.1850143539400599,3
1.2609457092819616,224,169,1.1349024713283076,0.1850143539400599,3
1.2635726795096323,224,170,-0.5308261583923732,-0.13786112242041698,3
1.266199649737303,225,170,-1.1561236904775902,1.405156433668851,3
1.2688266199649738,225,170,-1.1561236904775902,1.405156433668851,3
1.2714535901926445,225,170,-1.1561236904775902,1.405156433668851,3
1.2740805604203151,224,169,1.1349024713283076,0.1850143539400599,3
1.276707530647986,224,169,1.1349024713283076,0.1850143539400599,3
1.2793345008756567,223,171,-1.5712572560278366,-2.0037541548701623,3
1.2819614711033276,225,170,-1.1561236904775902,1.405156433668851,3
1.2845884413309983,224,170,-0.5308261583923732,-0.13786112242041698,3
1.287215411558669,224,170,-0.5308261583923732,-0.13786112242041698,3
1.2898423817863398,224,169,1.1349024713283076,0.1850143539400599,3
1.2924693520140105,223,171,-1.5712572560278366,-2.0037541548701623,3
1.2950963222416814,224,170,-0.5308261583923732,-0.13786112242041698,3
1.297723292469352,224,169,1.1349024713283076,0.1850143539400599,3
1.3003502626970227,224,170,-0.5308261583923732,-0.13786112242041698,3
1.3029772329246936,225,170,-1.1561236904775902,1.405156433668851,3
1.3056042031523643,224,170,-0.5308261583923732,-0.13786112242041698,3
1.3082311733800351,224,170,-0.5308261583923732,-0.13786112242041698,3
1.3108581436077058,224,169,1.1349024713283076,0.1850143539400599,3
1.3134851138353765,223,171,-1.5712572560278366,-2.0037541548701623,3
1.3161120840630474,223,170,0.09447137369284385,-1.680878678509685,3
1.318739054290718,225,170,-1.1561236904775902,1.405156433668851,3
1.3213660245183887,224,170,-0.5308261583923732,-0.13786112242041698,3
1.3239929947460596,224,170,-0.5308261583923732,-0.13786112242041698,3
1.3266199649737302,224,169,1.1349024713283076,0.1850143539400599,3
1.3292469352014011,223,171,-1.5712572560278366,-2.0037541548701623,3
1.3318739054290718,223,171,-1.5712572560278366,-2.0037541548701623,3
1.3345008756567425,224,170,-0.5308261583923732,-0.13786112242041698,3
1.3371278458844134,224,170,-0.5308261583923732,-0.13786112242041698,3
1.339754816112084,224,169,1.1349024713283076,0.1850143539400599,3
1.342381786339755,224,169,1.1349024713283076,0.1850143539400599,3
1.3450087565674256,224,169,1.1349024713283076,0.1850143539400599,3
1.3476357267950962,224,169,1.1349024713283076,0.1850143539400599,3
1.3502626970227671,223,170,0.09447137369284385,-1.680878678509685,3
1.3528896672504378,223,171,-1.5712572560278366,-2.0037541548701623,3
1.3555166374781087,224,170,-0.5308261583923732,-0.13786112242041698,3
1.3581436077057794,225,170,-1.1561236904775902,1.405156433668851,3
1.36077057793345,226,169,-0.11569259284212667,3.271049466118596,3
1.363397548161121,225,170,-1.1561236904775902,1.405156433668851,3
1.3660245183887916,224,169,1.1349024713283076,0.1850143539400599,3
1.3686514886164625,224,169,1.1349024713283076,0.1850143539400599,3
1.3712784588441331,223,171,-1.5712572560278366,-2.0037541548701623,3
1.3739054290718038,225,170,-1.1561236904775902,1.405156433668851,3
1.3765323992994747,224,169,1.1349024713283076,0.1850143539400599,3
1.3791593695271454,224,170,-0.5308261583923732,-0.13786112242041698,3
1.381786339754816,224,169,1.1349024713283076,0.1850143539400599,3
1.384413309982487,224,169,1.1349024713283076,0.1850143539400599,3
1.3870402802101576,223,170,0.09447137369284385,-1.680878678509685,3
1.3896672504378285,224,170,-0.5308261583923732,-0.13786112242041698,3
1.3922942206654991,224,169,1.1349024713283076,0.1850143539400599,3
1.3949211908931698,225,170,-1.1561236904775902,1.405156433668851,3
1.3975481611208407,225,170,-1.1561236904775902,1.405156433668851,3
1.4001751313485113,224,169,1.1349024713283076,0.1850143539400599,3
1.4028021015761822,224,169,1.1349024713283076,0.1850143539400599,3
1.405429071803853,223,170,0.09447137369284385,-1.680878678509685,3
1.4080560420315236,224,169,1.1349024713283076,0.1850143539400599,3
1.4106830122591945,225,170,-1.1561236904775902,1.405156433668851,3
1.4133099824868651,224,170,-0.5308261583923732,-0.13786112242041698,3
1.415936952714536,224,169,1.1349024713283076,0.1850143539400599,3
1.4185639229422067,224,169,1.1349024713283076,0.1850143539400599,3
1.4211908931698773,223,170,0.09447137369284385,-1.680878678509685,3
1.4238178633975482,223,171,-1.5712572560278366,-2.0037541548701623,3
1.426444833625219,223,169,1.7602000034135248,-1.3580032021492083,3
1.4290718038528896,225,170,-1.1561236904775902,1.405156433668851,3
1.4316987740805605,224,170,-0.5308261583923732,-0.13786112242041698,3
1.4343257443082311,224,170,-0.5308261583923732,-0.13786112242041698,3
1.436952714535902,224,169,1.1349024713283076,0.1850143539400599,3
1.4395796847635727,223,170,0.09447137369284385,-1.680878678509685,3
1.4422066549912433,223,171,-1.5712572560278366,-2.0037541548701623,3
1.4448336252189142,224,170,-0.5308261583923732,-0.13786112242041698,3
1.447460595446585,224,169,1.1349024713283076,0.1850143539400599,3
1.4500875656742558,225,170,-1.1561236904775902,1.405156433668851,3
1.4527145359019265,225,170,-1.1561236904775902,1.405156433668851,3
1.4553415061295971,224,169,1.1349024713283076,0.1850143539400599,3
1.457968476357268,224,169,1.1349024713283076,0.1850143539400599,3
1.4605954465849387,223,170,0.09447137369284385,-1.680878678509685,3
1.4632224168126096,224,170,-0.5308261583923732,-0.13786112242041698,3
1.4658493870402802,224,169,1.1349024713283076,0.1850143539400599,3
1.468476357267951,224,169,1.1349024713283076,0.1850143539400599,3
1.4711033274956218,224,170,-0.5308261583923732,-0.13786112242041698,3
1.4737302977232924,224,170,-0.5308261583923732,-0.13786112242041698,3
1.4763572679509633,223,170,0.09447137369284385,-1.680878678509685,3
1.478984238178634,224,170,-0.5308261583923732,-0.13786112242041698,3
1.4816112084063047,224,169,1.1349024713283076,0.1850143539400599,3
1.4842381786339756,225,170,-1.1561236904775902,1.405156433668851,3
1.4868651488616462,224,170,-0.5308261583923732,-0.13786112242041698,3
1.489492119089317,224,170,-0.5308261583923732,-0.13786112242041698,3
1.4921190893169878,224,169,1.1349024713283076,0.1850143539400599,3
1.4947460595446584,224,169,1.1349024713283076,0.1850143539400599,3
1.4973730297723293,223,171,-1.5712572560278366,-2.0037541548701623,3
1.5,223,170,0.09447137369284385,-1.680878678509685,3
1.5026269702276707,224,170,-0.5308261583923732,-0.13786112242041698,3
1.5052539404553416,224,170,-0.5308261583923732,-0.13786112242041698,3
1.5078809106830122,224,169,1.1349024713283076,0.1850143539400599,3
1.510507880910683,225,170,-1.1561236904775902,1.405156433668851,3
1.5131348511383538,224,169,1.1349024713283076,0.1850143539400599,3
1.5157618213660244,224,170,-0.5308261583923732,-0.13786112242041698,3
1.5183887915936953,224,170,-0.5308261583923732,-0.13786112242041698,3
1.521015761821366,225,170,-1.1561236904775902,1.405156433668851,3
1.5236427320490369,224,170,-0.5308261583923732,-0.13786112242041698,3
1.5262697022767076,224,170,-0.5308261583923732,-0.13786112242041698,3
1.5288966725043782,224,169,1.1349024713283076,0.1850143539400599,3
1.531523642732049,223,170,0.09447137369284385,-1.680878678509685,3
1.5341506129597198,223,171,-1.5712572560278366,-2.0037541548701623,3
1.5367775831873907,224,170,-0.5308261583923732,-0.13786112242041698,3
1.5394045534150613,224,169,1.1349024713283076,0.1850143539400599,3
1.542031523642732,224,170,-0.5308261583923732,-0.13786112242041698,3
1.5446584938704029,224,170,-0.5308261583923732,-0.13786112242041698,3
1.5472854640980735,223,170,0.09447137369284385,-1.680878678509685,3
1.5499124343257442,224,169,1.1349024713283076,0.1850143539400599,3
1.552539404553415,223,170,0.09447137369284385,-1.680878678509685,3
1.5551663747810858,224,170,-0.5308261583923732,-0.13786112242041698,3
1.5577933450087567,224,169,1.1349024713283076,0.1850143539400599,3
1.5604203152364273,224,170,-0.5308261583923732,-0.13786112242041698,3
1.563047285464098,224,170,-0.5308261583923732,-0.13786112242041698,3
1.5656742556917689,224,169,1.1349024713283076,0.1850143539400599,3
1.5683012259194395,223,170,0.09447137369284385,-1.680878678509685,3
1.5709281961471104,224,170,-0.5308261583923732,-0.13786112242041698,3
1.573555166374781,224,169,1.1349024713283076,0.1850143539400599,3
1.5761821366024518,225,170,-1.1561236904775902,1.405156433668851,3
1.5788091068301227,224,170,-0.5308261583923732,-0.13786112242041698,3
1.5814360770577933,224,169,1.1349024713283076,0.1850143539400599,3
1.5840630472854642,224,169,1.1349024713283076,0.1850143539400599,3
1.5866900175131349,223,171,-1.5712572560278366,-2.0037541548701623,3
1.5893169877408055,223,170,0.09447137369284385,-1.680878678509685,3
1.5919439579684764,224,170,-0.5308261583923732,-0.13786112242041698,3
1.594570928196147,224,170,-0.5308261583923732,-0.13786112242041698,3
1.597197898423818,224,170,-0.5308261583923732,-0.13786112242041698,3
1.5998248686514887,224,170,-0.5308261583923732,-0.13786112242041698,3
1.6024518388791593,223,170,0.09447137369284385,-1.680878678509685,3
1.6050788091068302,223,170,0.09447137369284385,-1.680878678509685,3
1.6077057793345009,223,171,-1.5712572560278366,-2.0037541548701623,3
1.6103327495621715,224,170,-0.5308261583923732,-0.13786112242041698,3
1.6129597197898424,225,170,-1.1561236904775902,1.405156433668851,3
1.615586690017513,225,170,-1.1561236904775902,1.405156433668851,3
1.618213660245184,224,170,-0.5308261583923732,-0.13786112242041698,3
1.6208406304728546,224,169,1.1349024713283076,0.1850143539400599,3
1.6234676007005253,223,170,0.09447137369284385,-1.680878678509685,3
1.6260945709281962,224,170,-0.5308261583923732,-0.13786112242041698,3
1.6287215411558669,224,169,1.1349024713283076,0.1850143539400599,3
1.6313485113835378,224,170,-0.5308261583923732,-0.13786112242041698,3
1.6339754816112084,225,170,-1.1561236904775902,1.405156433668851,3
1.636602451838879,224,170,-0.5308261583923732,-0.13786112242041698,3
1.63922942206655,224,169,1.1349024713283076,0.1850143539400599,3
1.6418563922942206,223,171,-1.5712572560278366,-2.0037541548701623,3
1.6444833625218915,223,171,-1.5712572560278366,-2.0037541548701623,3
1.6471103327495622,223,171,-1.5712572560278366,-2.0037541548701623,3
1.6497373029772329,225,171,-2.821852320198271,1.082280957308374,3
1.6523642732049038,225,170,-1.1561236904775902,1.405156433668851,3
1.6549912434325744,225,170,-1.1561236904775902,1.405156433668851,3
1.657618213660245,224,169,1.1349024713283076,0.1850143539400599,3
1.660245183887916,224,169,1.1349024713283076,0.1850143539400599,3
1.6628721541155866,223,170,0.09447137369284385,-1.680878678509685,3
1.6654991243432575,225,170,-1.1561236904775902,1.405156433668851,3
1.6681260945709282,224,169,1.1349024713283076,0.1850143539400599,3
1.6707530647985989,224,170,-0.5308261583923732,-0.13786112242041698,3
1.6733800350262698,224,169,1.1349024713283076,0.1850143539400599,3
1.6760070052539404,224,170,-0.5308261583923732,-0.13786112242041698,3
1.6786339754816113,223,170,0.09447137369284385,-1.680878678509685,3
1.681260945709282,223,171,-1.5712572560278366,-2.0037541548701623,3
1.6838879159369526,224,170,-0.5308261583923732,-0.13786112242041698,3
1.6865148861646235,224,170,-0.5308261583923732,-0.13786112242041698,3
1.6891418563922942,224,169,1.1349024713283076,0.1850143539400599,3
1.691768826619965,224,170,-0.5308261583923732,-0.13786112242041698,3
1.6943957968476357,224,169,1.1349024713283076,0.1850143539400599,3
1.6970227670753064,223,171,-1.5712572560278366,-2.0037541548701623,3
1.6996497373029773,224,170,-0.5308261583923732,-0.13786112242041698,3
1.702276707530648,224,170,-0.5308261583923732,-0.13786112242041698,3
1.7049036777583189,224,170,-0.5308261583923732,-0.13786112242041698,3
1.7075306479859895,224,170,-0.5308261583923732,-0.13786112242041698,3
1.7101576182136602,225,170,-1.1561236904775902,1.405156433668851,3
1.712784588441331,224,169,1.1349024713283076,0.1850143539400599,3
1.7154115586690017,223,170,0.09447137369284385,-1.680878678509685,3
1.7180385288966724,224,170,-0.5308261583923732,-0.13786112242041698,3
1.7206654991243433,224,169,1.1349024713283076,0.1850143539400599,3
1.723292469352014,224,169,1.1349024713283076,0.1850143539400599,3
1.7259194395796849,224,169,1.1349024713283076,0.1850143539400599,3
1.7285464098073555,223,171,-1.5712572560278366,-2.0037541548701623,3
1.7311733800350262,225,170,-1.1561236904775902,1.405156433668851,3
1.733800350262697,224,169,1.1349024713283076,0.1850143539400599,3
1.7364273204903677,224,169,1.1349024713283076,0.1850143539400599,3
1.7390542907180386,224,170,-0.5308261583923732,-0.13786112242041698,3
1.7416812609457093,224,170,-0.5308261583923732,-0.13786112242041698,3
1.74430823117338,225,170,-1.1561236904775902,1.405156433668851,3
1.7469352014010509,224,170,-0.5308261583923732,-0.13786112242041698,3
1.7495621716287215,224,169,1.1349024713283076,0.1850143539400599,3
1.7521891418563924,223,170,0.09447137369284385,-1.680878678509685,3
1.754816112084063,225,169,0.5096049392430905,1.7280319100293278,3
1.7574430823117337,224,169,1.1349024713283076,0.1850143539400599,3
1.7600700525394046,225,170,-1.1561236904775902,1.405156433668851,3
1.7626970227670753,225,170,-1.1561236904775902,1.405156433668851,3
1.765323992994746,225,169,0.5096049392430905,1.7280319100293278,3
1.7679509632224168,224,169,1.1349024713283076,0.1850143539400599,3
1.7705779334500875,224,169,1.1349024713283076,0.1850143539400599,3
1.7732049036777584,224,169,1.1349024713283076,0.1850143539400599,3
1.775831873905429,224,169,1.1349024713283076,0.1850143539400599,3
1.7784588441330997,225,170,-1.1561236904775902,1.405156433668851,3
1.7810858143607706,224,170,-0.5308261583923732,-0.13786112242041698,3
1.7837127845884413,224,170,-0.5308261583923732,-0.13786112242041698,3
1.7863397548161122,224,169,1.1349024713283076,0.1850143539400599,3
1.7889667250437828,223,170,0.09447137369284385,-1.680878678509685,3
1.7915936952714535,224,170,-0.5308261583923732,-0.13786112242041698,3
1.7942206654991244,224,170,-0.5308261583923732,-0.13786112242041698,3
1.796847635726795,224,169,1.1349024713283076,0.1850143539400599,3
1.799474605954466,225,170,-1.1561236904775902,1.405156433668851,3
1.8021015761821366,224,169,1.1349024713283076,0.1850143539400599,3
1.8047285464098073,224,169,1.1349024713283076,0.1850143539400599,3
1.8073555166374782,223,170,0.09447137369284385,-1.680878678509685,3
1.8099824868651488,224,169,1.1349024713283076,0.1850143539400599,3
1.8126094570928197,224,170,-0.5308261583923732,-0.13786112242041698,3
1.8152364273204904,224,170,-0.5308261583923732,-0.13786112242041698,3
1.817863397548161,224,169,1.1349024713283076,0.1850143539400599,3
1.820490367775832,225,170,-1.1561236904775902,1.405156433668851,3
1.8231173380035026,224,169,1.1349024713283076,0.1850143539400599,3
1.8257443082311733,224,169,1.1349024713283076,0.1850143539400599,3
1.8283712784588442,224,169,1.1349024713283076,0.1850143539400599,3
1.8309982486865148,224,170,-0.5308261583923732,-0.13786112242041698,3
1.8336252189141857,224,169,1.1349024713283076,0.1850143539400599,3
1.8362521891418564,224,170,-0.5308261583923732,-0.13786112242041698,3
1.838879159369527,224,169,1.1349024713283076,0.1850143539400599,3
1.841506129597198,223,170,0.09447137369284385,-1.680878678509685,3
1.8441330998248686,223,170,0.09447137369284385,-1.680878678509685,3
1.8467600700525395,223,170,0.09447137369284385,-1.680878678509685,3
1.8493870402802102,224,170,-0.5308261583923732,-0.13786112242041698,3
1.8520140105078808,225,170,-1.1561236904775902,1.405156433668851,3
1.8546409807355517,226,170,-1.7814212225628072,2.948173989758119,3
1.8572679509632224,225,169,0.5096049392430905,1.7280319100293278,3
1.8598949211908933,224,169,1.1349024713283076,0.1850143539400599,3
1.862521891418564,224,169,1.1349024713283076,0.1850143539400599,3
1.8651488616462346,224,170,-0.5308261583923732,-0.13786112242041698,3
1.8677758318739055,225,170,-1.1561236904775902,1.405156433668851,3
1.8704028021015762,224,169,1.1349024713283076,0.1850143539400599,3
1.873029772329247,224,170,-0.5308261583923732,-0.13786112242041698,3
1.8756567425569177,224,169,1.1349024713283076,0.1850143539400599,3
1.8782837127845884,223,169,1.7602000034135248,-1.3580032021492083,3
1.8809106830122593,223,170,0.09447137369284385,-1.680878678509685,3
1.88353765323993,224,170,-0.5308261583923732,-0.13786112242041698,3
1.8861646234676006,224,169,1.1349024713283076,0.1850143539400599,3
1.8887915936952715,224,170,-0.5308261583923732,-0.13786112242041698,3
1.8914185639229422,225,170,-1.1561236904775902,1.405156433668851,3
1.894045534150613,224,169,1.1349024713283076,0.1850143539400599,3
1.8966725043782837,223,170,0.09447137369284385,-1.680878678509685,3
1.8992994746059544,224,170,-0.5308261583923732,-0.13786112242041698,3
1.9019264448336253,224,170,-0.5308261583923732,-0.13786112242041698,3
1.904553415061296,224,169,1.1349024713283076,0.1850143539400599,3
1.9071803852889668,224,169,1.1349024713283076,0.1850143539400599,3
1.9098073555166375,225,170,-1.1561236904775902,1.405156433668851,3
1.9124343257443082,224,169,1.1349024713283076,0.1850143539400599,3
1.915061295971979,224,169,1.1349024713283076,0.1850143539400599,3
1.9176882661996497,223,170,0.09447137369284385,-1.680878678509685,3
1.9203152364273206,224,170,-0.5308261583923732,-0.13786112242041698,3
1.9229422066549913,224,170,-0.5308261583923732,-0.13786112242041698,3
1.925569176882662,224,169,1.1349024713283076,0.1850143539400599,3
1.9281961471103328,224,169,1.1349024713283076,0.1850143539400599,3
1.9308231173380035,224,169,1.1349024713283076,0.1850143539400599,3
1.9334500875656744,223,171,-1.5712572560278366,-2.0037541548701623,3
1.936077057793345,223,170,0.09447137369284385,-1.680878678509685,3
1.9387040280210157,224,170,-0.5308261583923732,-0.13786112242041698,3
1.9413309982486866,224,170,-0.5308261583923732,-0.13786112242041698,3
1.9439579684763573,224,170,-0.5308261583923732,-0.13786112242041698,3
1.946584938704028,224,170,-0.5308261583923732,-0.13786112242041698,3
1.9492119089316988,224,169,1.1349024713283076,0.1850143539400599,3
1.9518388791593695,223,170,0.09447137369284385,-1.680878678509685,3
1.9544658493870404,224,170,-0.5308261583923732,-0.13786112242041698,3
1.957092819614711,224,169,1.1349024713283076,0.1850143539400599,3
1.9597197898423817,225,170,-1.1561236904775902,1.405156433668851,3
1.9623467600700526,224,170,-0.5308261583923732,-0.13786112242041698,3
1.9649737302977233,224,170,-0.5308261583923732,-0.13786112242041698,3
1.9676007005253942,224,169,1.1349024713283076,0.1850143539400599,3
1.9702276707530648,223,169,1.7602000034135248,-1.3580032021492083,3
1.9728546409807355,223,170,0.09447137369284385,-1.680878678509685,3
1.9754816112084064,224,170,-0.5308261583923732,-0.13786112242041698,3
1.978108581436077,224,170,-0.5308261583923732,-0.13786112242041698,3
1.980735551663748,224,170,-0.5308261583923732,-0.13786112242041698,3
1.9833625218914186,224,170,-0.5308261583923732,-0.13786112242041698,3
1.9859894921190893,224,170,-0.5308261583923732,-0.13786112242041698,3
1.9886164623467601,223,170,0.09447137369284385,-1.680878678509685,3
1.9912434325744308,224,169,1.1349024713283076,0.1850143539400599,3
1.9938704028021015,224,169,1.1349024713283076,0.1850143539400599,3
1.9964973730297724,225,170,-1.1561236904775902,1.405156433668851,3
1.999124343257443,225,170,-1.1561236904775902,1.405156433668851,3
2.001751313485114,224,169,1.1349024713283076,0.1850143539400599,3
2.004378283712785,225,170,-1.1561236904775902,1.405156433668851,3
2.0070052539404553,224,169,1.1349024713283076,0.1850143539400599,3
2.009632224168126,224,169,1.1349024713283076,0.1850143539400599,3
2.012259194395797,224,170,-0.5308261583923732,-0.13786112242041698,3
2.0148861646234675,225,170,-1.1561236904775902,1.405156433668851,3
2.0175131348511384,224,170,-0.5308261583923732,-0.13786112242041698,3
2.0201401050788093,224,170,-0.5308261583923732,-0.13786112242041698,3
2.0227670753064797,224,169,1.1349024713283076,0.1850143539400599,3
2.0253940455341506,223,171,-1.5712572560278366,-2.0037541548701623,3
2.0280210157618215,223,170,0.09447137369284385,-1.680878678509685,3
2.030647985989492,223,171,-1.5712572560278366,-2.0037541548701623,3
2.033274956217163,225,170,-1.1561236904775902,1.405156433668851,3
2.0359019264448337,225,170,-1.1561236904775902,1.405156433668851,3
2.0385288966725046,224,170,-0.5308261583923732,-0.13786112242041698,3
2.041155866900175,224,169,1.1349024713283076,0.1850143539400599,3
2.043782837127846,224,169,1.1349024713283076,0.1850143539400599,3
2.046409807355517,223,171,-1.5712572560278366,-2.0037541548701623,3
2.0490367775831873,225,170,-1.1561236904775902,1.405156433668851,3
2.051663747810858,224,169,1.1349024713283076,0.1850143539400599,3
2.054290718038529,225,170,-1.1561236904775902,1.405156433668851,3
2.0569176882661995,226,170,-1.7814212225628072,2.948173989758119,3
2.0595446584938704,225,169,0.5096049392430905,1.7280319100293278,3
2.0621716287215412,224,169,1.1349024713283076,0.1850143539400599,3
2.064798598949212,224,170,-0.5308261583923732,-0.13786112242041698,3
2.0674255691768826,224,169,1.1349024713283076,0.1850143539400599,3
2.0700525394045535,224,170,-0.5308261583923732,-0.13786112242041698,3
2.0726795096322244,224,170,-0.5308261583923732,-0.13786112242041698,3
2.075306479859895,224,170,-0.5308261583923732,-0.13786112242041698,3
2.0779334500875657,224,169,1.1349024713283076,0.1850143539400599,3
2.0805604203152366,223,170,0.09447137369284385,-1.680878678509685,3
2.083187390542907,224,170,-0.5308261583923732,-0.13786112242041698,3
2.085814360770578,224,169,1.1349024713283076,0.1850143539400599,3
2.088441330998249,224,169,1.1349024713283076,0.1850143539400599,3
2.0910683012259192,225,170,-1.1561236904775902,1.405156433668851,3
2.09369527145359,224,170,-0.5308261583923732,-0.13786112242041698,3
2.096322241681261,224,169,1.1349024713283076,0.1850143539400599,3
2.098949211908932,223,170,0.09447137369284385,-1.680878678509685,3
2.1015761821366024,223,171,-1.5712572560278366,-2.0037541548701623,3
2.1042031523642732,225,170,-1.1561236904775902,1.405156433668851,3
2.106830122591944,224,170,-0.5308261583923732,-0.13786112242041698,3
2.1094570928196146,225,170,-1.1561236904775902,1.405156433668851,3
2.1120840630472855,224,169,1.1349024713283076,0.1850143539400599,3
2.1147110332749564,224,169,1.1349024713283076,0.1850143539400599,3
2.117338003502627,224,169,1.1349024713283076,0.1850143539400599,3
2.1199649737302977,223,170,0.09447137369284385,-1.680878678509685,3
2.1225919439579686,224,170,-0.5308261583923732,-0.13786112242041698,3
2.1252189141856395,224,170,-0.5308261583923732,-0.13786112242041698,3
2.12784588441331,224,170,-0.5308261583923732,-0.13786112242041698,3
2.130472854640981,224,169,1.1349024713283076,0.1850143539400599,3
2.1330998248686517,224,169,1.1349024713283076,0.1850143539400599,3
2.135726795096322,223,170,0.09447137369284385,-1.680878678509685,3
2.138353765323993,224,170,-0.5308261583923732,-0.13786112242041698,3
2.140980735551664,224,169,1.1349024713283076,0.1850143539400599,3
2.1436077057793343,225,170,-1.1561236904775902,1.405156433668851,3
2.1462346760070052,225,170,-1.1561236904775902,1.405156433668851,3
2.148861646234676,224,170,-0.5308261583923732,-0.13786112242041698,3
2.1514886164623466,223,170,0.09447137369284385,-1.680878678509685,3
2.1541155866900175,223,170,0.09447137369284385,-1.680878678509685,3
2.1567425569176883,224,170,-0.5308261583923732,-0.13786112242041698,3
2.1593695271453592,224,170,-0.5308261583923732,-0.13786112242041698,3
2.1619964973730297,224,169,1.1349024713283076,0.1850143539400599,3
2.1646234676007006,225,170,-1.1561236904775902,1.405156433668851,3
2.1672504378283715,224,169,1.1349024713283076,0.1850143539400599,3
2.169877408056042,224,169,1.1349024713283076,0.1850143539400599,3
2.172504378283713,224,169,1.1349024713283076,0.1850143539400599,3
2.1751313485113837,224,170,-0.5308261583923732,-0.13786112242041698,3
2.177758318739054,224,169,1.1349024713283076,0.1850143539400599,3
2.180385288966725,224,169,1.1349024713283076,0.1850143539400599,3
2.183012259194396,225,170,-1.1561236904775902,1.405156433668851,3
2.1856392294220663,224,170,-0.5308261583923732,-0.13786112242041698,3
2.1882661996497372,224,169,1.1349024713283076,0.1850143539400599,3
2.190893169877408,224,169,1.1349024713283076,0.1850143539400599,3
2.193520140105079,224,170,-0.5308261583923732,-0.13786112242041698,3
2.1961471103327495,225,170,-1.1561236904775902,1.405156433668851,3
2.1987740805604203,224,170,-0.5308261583923732,-0.13786112242041698,3
2.2014010507880912,224,169,1.1349024713283076,0.1850143539400599,3
2.2040280210157617,224,169,1.1349024713283076,0.1850143539400599,3
2.2066549912434326,224,169,1.1349024713283076,0.1850143539400599,3
2.2092819614711035,223,170,0.09447137369284385,-1.680878678509685,3
2.211908931698774,223,171,-1.5712572560278366,-2.0037541548701623,3
2.214535901926445,224,170,-0.5308261583923732,-0.13786112242041698,3
2.2171628721541157,224,170,-0.5308261583923732,-0.13786112242041698,3
2.2197898423817866,224,170,-0.5308261583923732,-0.13786112242041698,3
2.222416812609457,224,169,1.1349024713283076,0.1850143539400599,3
2.225043782837128,224,169,1.1349024713283076,0.1850143539400599,3
2.227670753064799,224,169,1.1349024713283076,0.1850143539400599,3
2.2302977232924692,224,170,-0.5308261583923732,-0.13786112242041698,3
2.23292469352014,224,169,1.1349024713283076,0.1850143539400599,3
2.235551663747811,225,170,-1.1561236904775902,1.405156433668851,3
2.2381786339754814,225,170,-1.1561236904775902,1.405156433668851,3
2.2408056042031523,224,169,1.1349024713283076,0.1850143539400599,3
2.2434325744308232,224,169,1.1349024713283076,0.1850143539400599,3
2.2460595446584937,223,170,0.09447137369284385,-1.680878678509685,3
2.2486865148861646,224,171,-2.196554788113054,-0.4607365987808939,3
2.2513134851138354,225,169,0.5096049392430905,1.7280319100293278,3
2.2539404553415063,225,169,0.5096049392430905,1.7280319100293278,3
2.2565674255691768,224,170,-0.5308261583923732,-0.13786112242041698,3
2.2591943957968477,224,169,1.1349024713283076,0.1850143539400599,3
2.2618213660245186,224,170,-0.5308261583923732,-0.13786112242041698,3
2.264448336252189,223,170,0.09447137369284385,-1.680878678509685,3
2.26707530647986,223,171,-1.5712572560278366,-2.0037541548701623,3
2.2697022767075308,224,170,-0.5308261583923732,-0.13786112242041698,3
2.272329246935201,224,170,-0.5308261583923732,-0.13786112242041698,3
2.274956217162872,224,170,-0.5308261583923732,-0.13786112242041698,3
2.277583187390543,224,169,1.1349024713283076,0.1850143539400599,3
2.280210157618214,224,169,1.1349024713283076,0.1850143539400599,3
2.2828371278458843,223,170,0.09447137369284385,-1.680878678509685,3
2.285464098073555,224,170,-0.5308261583923732,-0.13786112242041698,3
2.288091068301226,224,169,1.1349024713283076,0.1850143539400599,3
2.2907180385288965,224,170,-0.5308261583923732,-0.13786112242041698,3
2.2933450087565674,225,170,-1.1561236904775902,1.405156433668851,3
2.2959719789842383,224,169,1.1349024713283076,0.1850143539400599,3
2.2985989492119088,224,169,1.1349024713283076,0.1850143539400599,3
2.3012259194395797,224,169,1.1349024713283076,0.1850143539400599,3
2.3038528896672505,224,170,-0.5308261583923732,-0.13786112242041698,3
2.306479859894921,224,170,-0.5308261583923732,-0.13786112242041698,3
2.309106830122592,224,169,1.1349024713283076,0.1850143539400599,3
2.3117338003502628,224,169,1.1349024713283076,0.1850143539400599,3
2.3143607705779337,224,170,-0.5308261583923732,-0.13786112242041698,3
2.316987740805604,223,170,0.09447137369284385,-1.680878678509685,3
2.319614711033275,223,170,0.09447137369284385,-1.680878678509685,3
2.322241681260946,224,170,-0.5308261583923732,-0.13786112242041698,3
2.3248686514886163,224,170,-0.5308261583923732,-0.13786112242041698,3
2.327495621716287,224,170,-0.5308261583923732,-0.13786112242041698,3
2.330122591943958,224,170,-0.5308261583923732,-0.13786112242041698,3
2.3327495621716285,223,171,-1.5712572560278366,-2.0037541548701623,3
2.3353765323992994,224,170,-0.5308261583923732,-0.13786112242041698,3
2.3380035026269703,224,169,1.1349024713283076,0.1850143539400599,3
2.340630472854641,224,169,1.1349024713283076,0.1850143539400599,3
2.3432574430823117,225,170,-1.1561236904775902,1.405156433668851,3
2.3458844133099825,224,170,-0.5308261583923732,-0.13786112242041698,3
2.3485113835376534,224,169,1.1349024713283076,0.1850143539400599,3
2.351138353765324,224,169,1.1349024713283076,0.1850143539400599,3
2.3537653239929948,224,169,1.1349024713283076,0.1850143539400599,3
2.3563922942206657,223,170,0.09447137369284385,-1.680878678509685,3
2.359019264448336,224,170,-0.5308261583923732,-0.13786112242041698,3
2.361646234676007,224,169,1.1349024713283076,0.1850143539400599,3
2.364273204903678,225,170,-1.1561236904775902,1.405156433668851,3
2.3669001751313483,225,170,-1.1561236904775902,1.405156433668851,3
2.369527145359019,225,170,-1.1561236904775902,1.405156433668851,3
2.37215411558669,224,169,1.1349024713283076,0.1850143539400599,3
2.374781085814361,224,169,1.1349024713283076,0.1850143539400599,3
2.3774080560420314,224,170,-0.5308261583923732,-0.13786112242041698,3
2.3800350262697023,224,169,1.1349024713283076,0.1850143539400599,3
2.382661996497373,225,170,-1.1561236904775902,1.405156433668851,3
2.3852889667250436,224,170,-0.5308261583923732,-0.13786112242041698,3
2.3879159369527145,224,169,1.1349024713283076,0.1850143539400599,3
2.3905429071803854,224,169,1.1349024713283076,0.1850143539400599,3
2.393169877408056,223,171,-1.5712572560278366,-2.0037541548701623,3
2.3957968476357268,224,170,-0.5308261583923732,-0.13786112242041698,3
2.3984238178633976,224,169,1.1349024713283076,0.1850143539400599,3
2.4010507880910685,224,170,-0.5308261583923732,-0.13786112242041698,3
2.403677758318739,224,169,1.1349024713283076,0.1850143539400599,3
2.40630472854641,225,170,-1.1561236904775902,1.405156433668851,3
2.4089316987740808,224,169,1.1349024713283076,0.1850143539400599,3
2.411558669001751,224,169,1.1349024713283076,0.1850143539400599,3
2.414185639229422,224,169,1.1349024713283076,0.1850143539400599,3
2.416812609457093,225,170,-1.1561236904775902,1.405156433668851,3
2.4194395796847634,224,170,-0.5308261583923732,-0.13786112242041698,3
2.4220665499124343,224,170,-0.5308261583923732,-0.13786112242041698,3
2.424693520140105,224,169,1.1349024713283076,0.1850143539400599,3
2.4273204903677756,224,169,1.1349024713283076,0.1850143539400599,3
2.4299474605954465,223,171,-1.5712572560278366,-2.0037541548701623,3
2.4325744308231174,224,170,-0.5308261583923732,-0.13786112242041698,3
2.4352014010507883,224,169,1.1349024713283076,0.1850143539400599,3
2.4378283712784588,225,170,-1.1561236904775902,1.405156433668851,3
2.4404553415061296,225,170,-1.1561236904775902,1.405156433668851,3
2.4430823117338005,224,169,1.1349024713283076,0.1850143539400599,3
2.445709281961471,224,169,1.1349024713283076,0.1850143539400599,3
2.448336252189142,223,171,-1.5712572560278366,-2.0037541548701623,3
2.4509632224168127,223,171,-1.5712572560278366,-2.0037541548701623,3
2.453590192644483,223,171,-1.5712572560278366,-2.0037541548701623,3
2.456217162872154,225,170,-1.1561236904775902,1.405156433668851,3
2.458844133099825,225,170,-1.1561236904775902,1.405156433668851,3
2.461471103327496,224,169,1.1349024713283076,0.1850143539400599,3
2.4640980735551663,224,169,1.1349024713283076,0.1850143539400599,3
2.466725043782837,224,169,1.1349024713283076,0.1850143539400599,3
2.469352014010508,223,170,0.09447137369284385,-1.680878678509685,3
2.4719789842381785,225,170,-1.1561236904775902,1.405156433668851,3
2.4746059544658494,225,170,-1.1561236904775902,1.405156433668851,3
2.4772329246935203,225,170,-1.1561236904775902,1.405156433668851,3
2.4798598949211907,224,169,1.1349024713283076,0.1850143539400599,3
2.4824868651488616,224,169,1.1349024713283076,0.1850143539400599,3
2.4851138353765325,223,171,-1.5712572560278366,-2.0037541548701623,3
2.487740805604203,224,170,-0.5308261583923732,-0.13786112242041698,3
2.490367775831874,224,169,1.1349024713283076,0.1850143539400599,3
2.4929947460595447,224,170,-0.5308261583923732,-0.13786112242041698,3
2.4956217162872156,224,170,-0.5308261583923732,-0.13786112242041698,3
2.498248686514886,224,170,-0.5308261583923732,-0.13786112242041698,3
2.500875656742557,223,170,0.09447137369284385,-1.680878678509685,3
2.503502626970228,224,170,-0.5308261583923732,-0.13786112242041698,3
2.5061295971978983,224,169,1.1349024713283076,0.1850143539400599,3
2.508756567425569,225,170,-1.1561236904775902,1.405156433668851,3
2.51138353765324,224,170,-0.5308261583923732,-0.13786112242041698,3
2.5140105078809105,224,170,-0.5308261583923732,-0.13786112242041698,3
2.5166374781085814,224,169,1.1349024713283076,0.1850143539400599,3
2.5192644483362523,223,170,0.09447137369284385,-1.680878678509685,3
2.521891418563923,224,170,-0.5308261583923732,-0.13786112242041698,3
2.5245183887915936,224,170,-0.5308261583923732,-0.13786112242041698,3
2.5271453590192645,224,169,1.1349024713283076,0.1850143539400599,3
2.5297723292469354,225,170,-1.1561236904775902,1.405156433668851,3
2.532399299474606,224,169,1.1349024713283076,0.1850143539400599,3
2.5350262697022767,224,169,1.1349024713283076,0.1850143539400599,3
2.5376532399299476,224,169,1.1349024713283076,0.1850143539400599,3
2.540280210157618,223,171,-1.5712572560278366,-2.0037541548701623,3
2.542907180385289,225,170,-1.1561236904775902,1.405156433668851,3
2.54553415061296,224,170,-0.5308261583923732,-0.13786112242041698,3
2.5481611208406303,224,170,-0.5308261583923732,-0.13786112242041698,3
2.550788091068301,224,169,1.1349024713283076,0.1850143539400599,3
2.553415061295972,224,171,-2.196554788113054,-0.4607365987808939,3
2.556042031523643,223,170,0.09447137369284385,-1.680878678509685,3
2.5586690017513134,224,170,-0.5308261583923732,-0.13786112242041698,3
2.5612959719789843,224,170,-0.5308261583923732,-0.13786112242041698,3
2.563922942206655,225,170,-1.1561236904775902,1.405156433668851,3
2.5665499124343256,225,170,-1.1561236904775902,1.405156433668851,3
2.5691768826619965,225,169,0.5096049392430905,1.7280319100293278,3
2.5718038528896674,224,169,1.1349024713283076,0.1850143539400599,3
2.574430823117338,223,169,1.7602000034135248,-1.3580032021492083,3
2.5770577933450087,225,170,-1.1561236904775902,1.405156433668851,3
2.5796847635726796,224,169,1.1349024713283076,0.1850143539400599,3
2.58231173380035,224,169,1.1349024713283076,0.1850143539400599,3
2.584938704028021,224,170,-0.5308261583923732,-0.13786112242041698,3
2.587565674255692,224,169,1.1349024713283076,0.1850143539400599,3
2.5901926444833627,223,170,0.09447137369284385,-1.680878678509685,3
2.592819614711033,224,170,-0.5308261583923732,-0.13786112242041698,3
2.595446584938704,224,169,1.1349024713283076,0.1850143539400599,3
2.598073555166375,224,170,-0.5308261583923732,-0.13786112242041698,3
2.6007005253940454,225,170,-1.1561236904775902,1.405156433668851,3
2.6033274956217163,224,170,-0.5308261583923732,-0.13786112242041698,3
2.605954465849387,224,169,1.1349024713283076,0.1850143539400599,3
2.6085814360770576,224,169,1.1349024713283076,0.1850143539400599,3
2.6112084063047285,224,169,1.1349024713283076,0.1850143539400599,3
2.6138353765323994,223,170,0.09447137369284385,-1.680878678509685,3
2.6164623467600703,225,170,-1.1561236904775902,1.405156433668851,3
2.6190893169877407,224,169,1.1349024713283076,0.1850143539400599,3
2.6217162872154116,225,170,-1.1561236904775902,1.405156433668851,3
2.6243432574430825,225,169,0.5096049392430905,1.7280319100293278,3
2.626970227670753,224,169,1.1349024713283076,0.1850143539400599,3
2.629597197898424,224,169,1.1349024713283076,0.1850143539400599,3
2.6322241681260947,223,171,-1.5712572560278366,-2.0037541548701623,3
2.634851138353765,223,171,-1.5712572560278366,-2.0037541548701623,3
2.637478108581436,225,170,-1.1561236904775902,1.405156433668851,3
2.640105078809107,225,170,-1.1561236904775902,1.405156433668851,3
2.6427320490367774,225,170,-1.1561236904775902,1.405156433668851,3
2.6453590192644483,224,169,1.1349024713283076,0.1850143539400599,3
2.647985989492119,224,169,1.1349024713283076,0.1850143539400599,3
2.65061295971979,224,170,-0.5308261583923732,-0.13786112242041698,3
2.6532399299474605,225,170,-1.1561236904775902,1.405156433668851,3
2.6558669001751314,224,169,1.1349024713283076,0.1850143539400599,3
2.6584938704028023,224,170,-0.5308261583923732,-0.13786112242041698,3
2.6611208406304727,224,169,1.1349024713283076,0.1850143539400599,3
2.6637478108581436,223,171,-1.5712572560278366,-2.0037541548701623,3
2.6663747810858145,224,170,-0.5308261583923732,-0.13786112242041698,3
2.669001751313485,224,169,1.1349024713283076,0.1850143539400599,3
2.671628721541156,224,170,-0.5308261583923732,-0.13786112242041698,3
2.6742556917688267,224,170,-0.5308261583923732,-0.13786112242041698,3
2.6768826619964976,225,170,-1.1561236904775902,1.405156433668851,3
2.679509632224168,224,169,1.1349024713283076,0.1850143539400599,3
2.682136602451839,224,169,1.1349024713283076,0.1850143539400599,3
2.68476357267951,224,169,1.1349024713283076,0.1850143539400599,3
2.6873905429071803,223,171,-1.5712572560278366,-2.0037541548701623,3
2.690017513134851,225,170,-1.1561236904775902,1.405156433668851,3
2.692644483362522,224,169,1.1349024713283076,0.1850143539400599,3
2.6952714535901925,224,169,1.1349024713283076,0.1850143539400599,3
2.6978984238178634,224,169,1.1349024713283076,0.1850143539400599,3
2.7005253940455343,224,169,1.1349024713283076,0.1850143539400599,3
2.7031523642732047,223,170,0.09447137369284385,-1.680878678509685,3
2.7057793345008756,224,170,-0.5308261583923732,-0.13786112242041698,3
2.7084063047285465,224,170,-0.5308261583923732,-0.13786112242041698,3
2.7110332749562174,224,169,1.1349024713283076,0.1850143539400599,3
2.713660245183888,225,170,-1.1561236904775902,1.405156433668851,3
2.7162872154115587,224,169,1.1349024713283076,0.1850143539400599,3
2.7189141856392296,224,169,1.1349024713283076,0.1850143539400599,3
2.7215411558669,224,169,1.1349024713283076,0.1850143539400599,3
2.724168126094571,223,170,0.09447137369284385,-1.680878678509685,3
2.726795096322242,224,170,-0.5308261583923732,-0.13786112242041698,3
2.7294220665499123,225,170,-1.1561236904775902,1.405156433668851,3
2.732049036777583,225,170,-1.1561236904775902,1.405156433668851,3
2.734676007005254,224,169,1.1349024713283076,0.1850143539400599,3
2.737302977232925,224,169,1.1349024713283076,0.1850143539400599,3
2.7399299474605954,223,170,0.09447137369284385,-1.680878678509685,3
2.7425569176882663,224,170,-0.5308261583923732,-0.13786112242041698,3
2.745183887915937,224,170,-0.5308261583923732,-0.13786112242041698,3
2.7478108581436076,224,169,1.1349024713283076,0.1850143539400599,3
2.7504378283712785,224,170,-0.5308261583923732,-0.13786112242041698,3
2.7530647985989494,224,169,1.1349024713283076,0.1850143539400599,3
2.75569176882662,223,170,0.09447137369284385,-1.680878678509685,3
2.7583187390542907,224,170,-0.5308261583923732,-0.13786112242041698,3
2.7609457092819616,224,169,1.1349024713283076,0.1850143539400599,3
2.763572679509632,225,170,-1.1561236904775902,1.405156433668851,3
2.766199649737303,224,170,-0.5308261583923732,-0.13786112242041698,3
2.768826619964974,224,169,1.1349024713283076,0.1850143539400599,3
2.7714535901926447,224,169,1.1349024713283076,0.1850143539400599,3
2.774080560420315,223,170,0.09447137369284385,-1.680878678509685,3
2.776707530647986,223,170,0.09447137369284385,-1.680878678509685,3
2.779334500875657,224,170,-0.5308261583923732,-0.13786112242041698,3
2.7819614711033274,224,170,-0.5308261583923732,-0.13786112242041698,3
2.7845884413309983,224,170,-0.5308261583923732,-0.13786112242041698,3
2.787215411558669,224,170,-0.5308261583923732,-0.13786112242041698,3
2.7898423817863396,225,170,-1.1561236904775902,1.405156433668851,3
2.7924693520140105,224,169,1.1349024713283076,0.1850143539400599,3
2.7950963222416814,224,169,1.1349024713283076,0.1850143539400599,3
2.7977232924693523,224,169,1.1349024713283076,0.1850143539400599,3
2.8003502626970227,224,170,-0.5308261583923732,-0.13786112242041698,3
2.8029772329246936,225,170,-1.1561236904775902,1.405156433668851,3
2.8056042031523645,224,170,-0.5308261583923732,-0.13786112242041698,3
2.808231173380035,224,169,1.1349024713283076,0.1850143539400599,3
2.810858143607706,223,170,0.09447137369284385,-1.680878678509685,3
2.8134851138353767,223,171,-1.5712572560278366,-2.0037541548701623,3
2.816112084063047,223,170,0.09447137369284385,-1.680878678509685,3
2.818739054290718,225,170,-1.1561236904775902,1.405156433668851,3
2.821366024518389,225,170,-1.1561236904775902,1.405156433668851,3
2.8239929947460594,226,170,-1.7814212225628072,2.948173989758119,3
2.8266199649737302,225,169,0.5096049392430905,1.7280319100293278,3
2.829246935201401,224,169,1.1349024713283076,0.1850143539400599,3
2.831873905429072,224,169,1.1349024713283076,0.1850143539400599,3
2.8345008756567425,224,169,1.1349024713283076,0.1850143539400599,3
2.8371278458844134,225,170,-1.1561236904775902,1.405156433668851,3
2.8397548161120842,224,170,-0.5308261583923732,-0.13786112242041698,3
2.8423817863397547,224,170,-0.5308261583923732,-0.13786112242041698,3
2.8450087565674256,224,169,1.1349024713283076,0.1850143539400599,3
2.8476357267950965,223,170,0.09447137369284385,-1.680878678509685,3
2.850262697022767,224,170,-0.5308261583923732,-0.13786112242041698,3
2.852889667250438,224,169,1.1349024713283076,0.1850143539400599,3
2.8555166374781087,224,170,-0.5308261583923732,-0.13786112242041698,3
2.858143607705779,225,170,-1.1561236904775902,1.405156433668851,3
2.86077057793345,224,170,-0.5308261583923732,-0.13786112242041698,3
2.863397548161121,224,169,1.1349024713283076,0.1850143539400599,3
2.866024518388792,223,170,0.09447137369284385,-1.680878678509685,3
2.8686514886164622,223,170,0.09447137369284385,-1.680878678509685,3
2.871278458844133,224,170,-0.5308261583923732,-0.13786112242041698,3
2.873905429071804,224,170,-0.5308261583923732,-0.13786112242041698,3
2.8765323992994745,224,169,1.1349024713283076,0.1850143539400599,3
2.8791593695271454,225,170,-1.1561236904775902,1.405156433668851,3
2.8817863397548162,224,169,1.1349024713283076,0.1850143539400599,3
2.8844133099824867,224,169,1.1349024713283076,0.1850143539400599,3
2.8870402802101576,224,169,1.1349024713283076,0.1850143539400599,3
2.8896672504378285,224,169,1.1349024713283076,0.1850143539400599,3
2.8922942206654993,223,171,-1.5712572560278366,-2.0037541548701623,3
2.89492119089317,225,170,-1.1561236904775902,1.405156433668851,3
2.8975481611208407,224,170,-0.5308261583923732,-0.13786112242041698,3
2.9001751313485116,224,169,1.1349024713283076,0.1850143539400599,3
2.902802101576182,224,169,1.1349024713283076,0.1850143539400599,3
2.905429071803853,223,171,-1.5712572560278366,-2.0037541548701623,3
2.908056042031524,224,170,-0.5308261583923732,-0.13786112242041698,3
2.9106830122591942,224,170,-0.5308261583923732,-0.13786112242041698,3
2.913309982486865,224,170,-0.5308261583923732,-0.13786112242041698,3
2.915936952714536,224,170,-0.5308261583923732,-0.13786112242041698,3
2.9185639229422065,224,169,1.1349024713283076,0.1850143539400599,3
2.9211908931698773,223,170,0.09447137369284385,-1.680878678509685,3
2.9238178633975482,224,170,-0.5308261583923732,-0.13786112242041698,3
2.926444833625219,224,169,1.1349024713283076,0.1850143539400599,3
2.9290718038528896,225,170,-1.1561236904775902,1.405156433668851,3
2.9316987740805605,224,170,-0.5308261583923732,-0.13786112242041698,3
2.9343257443082313,224,170,-0.5308261583923732,-0.13786112242041698,3
2.936952714535902,223,170,0.09447137369284385,-1.680878678509685,3
2.9395796847635727,225,170,-1.1561236904775902,1.405156433668851,3
2.9422066549912436,224,169,1.1349024713283076,0.1850143539400599,3
2.944833625218914,224,169,1.1349024713283076,0.1850143539400599,3
2.947460595446585,225,169,0.5096049392430905,1.7280319100293278,3
2.950087565674256,224,170,-0.5308261583923732,-0.13786112242041698,3
2.9527145359019267,224,169,1.1349024713283076,0.1850143539400599,3
2.955341506129597,224,169,1.1349024713283076,0.1850143539400599,3
2.957968476357268,223,170,0.09447137369284385,-1.680878678509685,3
2.960595446584939,224,170,-0.5308261583923732,-0.13786112242041698,3
2.9632224168126093,224,169,1.1349024713283076,0.1850143539400599,3
2.9658493870402802,225,170,-1.1561236904775902,1.405156433668851,3
2.968476357267951,224,170,-0.5308261583923732,-0.13786112242041698,3
2.9711033274956216,224,169,1.1349024713283076,0.1850143539400599,3
2.9737302977232924,224,169,1.1349024713283076,0.1850143539400599,3
2.9763572679509633,224,169,1.1349024713283076,0.1850143539400599,3
2.978984238178634,223,169,1.7602000034135248,-1.3580032021492083,3
2.9816112084063047,224,170,-0.5308261583923732,-0.13786112242041698,3
2.9842381786339756,224,169,1.1349024713283076,0.1850143539400599,3
2.9868651488616464,224,170,-0.5308261583923732,-0.13786112242041698,3
2.989492119089317,224,169,1.1349024713283076,0.1850143539400599,3
2.992119089316988,224,170,-0.5308261583923732,-0.13786112242041698,3
2.9947460595446587,223,171,-1.5712572560278366,-2.0037541548701623,3
2.997373029772329,223,171,-1.5712572560278366,-2.0037541548701623,3
3.0,224,170,-0.5308261583923732,-0.13786112242041698,3
3.002626970227671,224,170,-0.5308261583923732,-0.13786112242041698,3
3.0052539404553413,225,170,-1.1561236904775902,1.405156433668851,3
3.007880910683012,224,169,1.1349024713283076,0.1850143539400599,3
3.010507880910683,224,169,1.1349024713283076,0.1850143539400599,3
3.013134851138354,224,169,1.1349024713283076,0.1850143539400599,3
3.0157618213660244,224,169,1.1349024713283076,0.1850143539400599,3
3.0183887915936953,224,170,-0.5308261583923732,-0.13786112242041698,3
3.021015761821366,224,170,-0.5308261583923732,-0.13786112242041698,3
3.0236427320490367,224,169,1.1349024713283076,0.1850143539400599,3
3.0262697022767076,224,169,1.1349024713283076,0.1850143539400599,3
3.0288966725043784,224,169,1.1349024713283076,0.1850143539400599,3
3.031523642732049,223,170,0.09447137369284385,-1.680878678509685,3
3.0341506129597198,224,170,-0.5308261583923732,-0.13786112242041698,3
3.0367775831873907,224,169,1.1349024713283076,0.1850143539400599,3
3.039404553415061,224,169,1.1349024713283076,0.1850143539400599,3
3.042031523642732,224,170,-0.5308261583923732,-0.13786112242041698,3
3.044658493870403,225,170,-1.1561236904775902,1.405156433668851,3
3.0472854640980738,224,169,1.1349024713283076,0.1850143539400599,3
3.049912434325744,224,169,1.1349024713283076,0.1850143539400599,3
3.052539404553415,224,169,1.1349024713283076,0.1850143539400599,3
3.055166374781086,224,170,-0.5308261583923732,-0.13786112242041698,3
3.0577933450087564,224,170,-0.5308261583923732,-0.13786112242041698,3
3.0604203152364273,224,169,1.1349024713283076,0.1850143539400599,3
3.063047285464098,224,170,-0.5308261583923732,-0.13786112242041698,3
3.0656742556917687,224,169,1.1349024713283076,0.1850143539400599,3
3.0683012259194395,223,170,0.09447137369284385,-1.680878678509685,3
3.0709281961471104,224,170,-0.5308261583923732,-0.13786112242041698,3
3.0735551663747813,224,169,1.1349024713283076,0.1850143539400599,3
3.0761821366024518,225,170,-1.1561236904775902,1.405156433668851,3
3.0788091068301227,225,170,-1.1561236904775902,1.405156433668851,3
3.0814360770577935,225,169,0.5096049392430905,1.7280319100293278,3
3.084063047285464,224,169,1.1349024713283076,0.1850143539400599,3
3.086690017513135,224,169,1.1349024713283076,0.1850143539400599,3
3.0893169877408058,223,171,-1.5712572560278366,-2.0037541548701623,3
3.091943957968476,224,170,-0.5308261583923732,-0.13786112242041698,3
3.094570928196147,224,169,1.1349024713283076,0.1850143539400599,3
3.097197898423818,224,169,1.1349024713283076,0.1850143539400599,3
3.0998248686514884,224,169,1.1349024713283076,0.1850143539400599,3
3.1024518388791593,224,169,1.1349024713283076,0.1850143539400599,3
3.10507880910683,223,171,-1.5712572560278366,-2.0037541548701623,3
3.107705779334501,225,170,-1.1561236904775902,1.405156433668851,3
3.1103327495621715,224,170,-0.5308261583923732,-0.13786112242041698,3
3.1129597197898424,224,169,1.1349024713283076,0.1850143539400599,3
3.1155866900175133,225,170,-1.1561236904775902,1.405156433668851,3
3.1182136602451838,224,169,1.1349024713283076,0.1850143539400599,3
3.1208406304728546,224,169,1.1349024713283076,0.1850143539400599,3
3.1234676007005255,224,169,1.1349024713283076,0.1850143539400599,3
3.126094570928196,223,170,0.09447137369284385,-1.680878678509685,3
3.128721541155867,225,170,-1.1561236904775902,1.405156433668851,3
3.1313485113835378,224,170,-0.5308261583923732,-0.13786112242041698,3
3.1339754816112086,224,170,-0.5308261583923732,-0.13786112242041698,3
3.136602451838879,224,169,1.1349024713283076,0.1850143539400599,3
3.13922942206655,224,169,1.1349024713283076,0.1850143539400599,3
3.141856392294221,223,170,0.09447137369284385,-1.680878678509685,3
3.1444833625218913,224,170,-0.5308261583923732,-0.13786112242041698,3
3.147110332749562,224,169,1.1349024713283076,0.1850143539400599,3
3.149737302977233,224,169,1.1349024713283076,0.1850143539400599,3
3.1523642732049035,225,170,-1.1561236904775902,1.405156433668851,3
3.1549912434325744,224,170,-0.5308261583923732,-0.13786112242041698,3
3.1576182136602453,224,169,1.1349024713283076,0.1850143539400599,3
3.1602451838879158,224,169,1.1349024713283076,0.1850143539400599,3
3.1628721541155866,224,169,1.1349024713283076,0.1850143539400599,3
3.1654991243432575,223,170,0.09447137369284385,-1.680878678509685,3
3.1681260945709284,225,170,-1.1561236904775902,1.405156433668851,3
3.170753064798599,225,170,-1.1561236904775902,1.405156433668851,3
3.1733800350262698,224,169,1.1349024713283076,0.1850143539400599,3
3.1760070052539406,224,169,1.1349024713283076,0.1850143539400599,3
3.178633975481611,223,169,1.7602000034135248,-1.3580032021492083,3
3.181260945709282,225,170,-1.1561236904775902,1.405156433668851,3
3.183887915936953,224,170,-0.5308261583923732,-0.13786112242041698,3
3.1865148861646233,224,170,-0.5308261583923732,-0.13786112242041698,3
3.189141856392294,224,170,-0.5308261583923732,-0.13786112242041698,3
3.191768826619965,225,170,-1.1561236904775902,1.405156433668851,3
3.194395796847636,224,169,1.1349024713283076,0.1850143539400599,3
3.1970227670753064,224,169,1.1349024713283076,0.1850143539400599,3
3.1996497373029773,224,170,-0.5308261583923732,-0.13786112242041698,3
3.202276707530648,224,169,1.1349024713283076,0.1850143539400599,3
3.2049036777583186,225,170,-1.1561236904775902,1.405156433668851,3
3.2075306479859895,225,170,-1.1561236904775902,1.405156433668851,3
3.2101576182136604,225,169,0.5096049392430905,1.7280319100293278,3
3.212784588441331,224,169,1.1349024713283076,0.1850143539400599,3
3.2154115586690017,224,169,1.1349024713283076,0.1850143539400599,3
3.2180385288966726,223,171,-1.5712572560278366,-2.0037541548701623,3
3.220665499124343,224,170,-0.5308261583923732,-0.13786112242041698,3
3.223292469352014,225,170,-1.1561236904775902,1.405156433668851,3
3.225919439579685,224,170,-0.5308261583923732,-0.13786112242041698,3
3.2285464098073557,224,169,1.1349024713283076,0.1850143539400599,3
3.231173380035026,223,170,0.09447137369284385,-1.680878678509685,3
3.233800350262697,223,171,-1.5712572560278366,-2.0037541548701623,3
3.236427320490368,224,170,-0.5308261583923732,-0.13786112242041698,3
3.2390542907180384,224,169,1.1349024713283076,0.1850143539400599,3
3.2416812609457093,225,170,-1.1561236904775902,1.405156433668851,3
3.24430823117338,226,170,-1.7814212225628072,2.948173989758119,3
3.2469352014010506,225,169,0.5096049392430905,1.7280319100293278,3
3.2495621716287215,224,169,1.1349024713283076,0.1850143539400599,3
3.2521891418563924,224,169,1.1349024713283076,0.1850143539400599,3
3.254816112084063,224,169,1.1349024713283076,0.1850143539400599,3
3.2574430823117337,225,170,-1.1561236904775902,1.405156433668851,3
3.2600700525394046,224,170,-0.5308261583923732,-0.13786112242041698,3
3.2626970227670755,225,170,-1.1561236904775902,1.405156433668851,3
3.265323992994746,224,169,1.1349024713283076,0.1850143539400599,3
3.267950963222417,224,169,1.1349024713283076,0.1850143539400599,3
3.2705779334500877,224,169,1.1349024713283076,0.1850143539400599,3
3.273204903677758,223,170,0.09447137369284385,-1.680878678509685,3
3.275831873905429,224,169,1.1349024713283076,0.1850143539400599,3
3.2784588441331,225,170,-1.1561236904775902,1.405156433668851,3
3.2810858143607704,224,170,-0.5308261583923732,-0.13786112242041698,3
3.2837127845884413,224,169,1.1349024713283076,0.1850143539400599,3
3.286339754816112,224,169,1.1349024713283076,0.1850143539400599,3
3.288966725043783,223,171,-1.5712572560278366,-2.0037541548701623,3
3.2915936952714535,224,170,-0.5308261583923732,-0.13786112242041698,3
3.2942206654991244,224,169,1.1349024713283076,0.1850143539400599,3
3.2968476357267953,224,170,-0.5308261583923732,-0.13786112242041698,3
3.2994746059544657,224,169,1.1349024713283076,0.1850143539400599,3
3.3021015761821366,225,170,-1.1561236904775902,1.405156433668851,3
3.3047285464098075,224,169,1.1349024713283076,0.1850143539400599,3
3.307355516637478,224,169,1.1349024713283076,0.1850143539400599,3
3.309982486865149,224,169,1.1349024713283076,0.1850143539400599,3
3.3126094570928197,224,170,-0.5308261583923732,-0.13786112242041698,3
3.31523642732049,224,170,-0.5308261583923732,-0.13786112242041698,3
3.317863397548161,224,169,1.1349024713283076,0.1850143539400599,3
3.320490367775832,224,169,1.1349024713283076,0.1850143539400599,3
3.323117338003503,223,171,-1.5712572560278366,-2.0037541548701623,3
3.3257443082311733,223,170,0.09447137369284385,-1.680878678509685,3
3.328371278458844,224,170,-0.5308261583923732,-0.13786112242041698,3
3.330998248686515,224,170,-0.5308261583923732,-0.13786112242041698,3
3.3336252189141855,224,169,1.1349024713283076,0.1850143539400599,3
3.3362521891418564,224,169,1.1349024713283076,0.1850143539400599,3
3.3388791593695273,224,170,-0.5308261583923732,-0.13786112242041698,3
3.3415061295971977,223,170,0.09447137369284385,-1.680878678509685,3
3.3441330998248686,224,170,-0.5308261583923732,-0.13786112242041698,3
3.3467600700525395,224,169,1.1349024713283076,0.1850143539400599,3
3.3493870402802104,224,169,1.1349024713283076,0.1850143539400599,3
3.352014010507881,225,170,-1.1561236904775902,1.405156433668851,3
3.3546409807355517,224,170,-0.5308261583923732,-0.13786112242041698,3
3.3572679509632226,224,170,-0.5308261583923732,-0.13786112242041698,3
3.359894921190893,223,169,1.7602000034135248,-1.3580032021492083,3
3.362521891418564,225,170,-1.1561236904775902,1.405156433668851,3
3.365148861646235,224,169,1.1349024713283076,0.1850143539400599,3
3.3677758318739053,225,170,-1.1561236904775902,1.405156433668851,3
3.370402802101576,225,170,-1.1561236904775902,1.405156433668851,3
3.373029772329247,224,170,-0.5308261583923732,-0.13786112242041698,3
3.3756567425569175,224,169,1.1349024713283076,0.1850143539400599,3
3.3782837127845884,223,170,0.09447137369284385,-1.680878678509685,3
3.3809106830122593,224,170,-0.5308261583923732,-0.13786112242041698,3
3.38353765323993,224,169,1.1349024713283076,0.1850143539400599,3
3.3861646234676006,225,170,-1.1561236904775902,1.405156433668851,3
3.3887915936952715,225,170,-1.1561236904775902,1.405156433668851,3
3.3914185639229424,224,169,1.1349024713283076,0.1850143539400599,3
3.394045534150613,224,169,1.1349024713283076,0.1850143539400599,3
3.3966725043782837,223,169,1.7602000034135248,-1.3580032021492083,3
3.3992994746059546,223,171,-1.5712572560278366,-2.0037541548701623,3
3.401926444833625,224,170,-0.5308261583923732,-0.13786112242041698,3
3.404553415061296,224,170,-0.5308261583923732,-0.13786112242041698,3
3.407180385288967,224,170,-0.5308261583923732,-0.13786112242041698,3
3.4098073555166377,224,169,1.1349024713283076,0.1850143539400599,3
3.412434325744308,224,169,1.1349024713283076,0.1850143539400599,3
3.415061295971979,223,170,0.09447137369284385,-1.680878678509685,3
3.41768826619965,224,170,-0.5308261583923732,-0.13786112242041698,3
3.4203152364273204,224,169,1.1349024713283076,0.1850143539400599,3
3.4229422066549913,225,170,-1.1561236904775902,1.405156433668851,3
3.425569176882662,225,170,-1.1561236904775902,1.405156433668851,3
3.4281961471103326,225,170,-1.1561236904775902,1.405156433668851,3
3.4308231173380035,224,169,1.1349024713283076,0.1850143539400599,3
3.4334500875656744,224,169,1.1349024713283076,0.1850143539400599,3
3.436077057793345,224,169,1.1349024713283076,0.1850143539400599,3
3.4387040280210157,223,170,0.09447137369284385,-1.680878678509685,3
3.4413309982486866,225,170,-1.1561236904775902,1.405156433668851,3
3.4439579684763575,225,170,-1.1561236904775902,1.405156433668851,3
3.446584938704028,224,169,1.1349024713283076,0.1850143539400599,3
3.449211908931699,224,170,-0.5308261583923732,-0.13786112242041698,3
3.4518388791593697,223,170,0.09447137369284385,-1.680878678509685,3
3.45446584938704,223,171,-1.5712572560278366,-2.0037541548701623,3
3.457092819614711,224,170,-0.5308261583923732,-0.13786112242041698,3
3.459719789842382,224,170,-0.5308261583923732,-0.13786112242041698,3
3.4623467600700524,225,169,0.5096049392430905,1.7280319100293278,3
3.4649737302977233,225,170,-1.1561236904775902,1.405156433668851,3
3.467600700525394,224,169,1.1349024713283076,0.1850143539400599,3
3.470227670753065,224,169,1.1349024713283076,0.1850143539400599,3
3.4728546409807355,223,170,0.09447137369284385,-1.680878678509685,3
3.4754816112084064,225,170,-1.1561236904775902,1.405156433668851,3
3.4781085814360773,224,170,-0.5308261583923732,-0.13786112242041698,3
3.4807355516637477,224,169,1.1349024713283076,0.1850143539400599,3
3.4833625218914186,225,170,-1.1561236904775902,1.405156433668851,3
3.4859894921190895,224,169,1.1349024713283076,0.1850143539400599,3
3.48861646234676,224,169,1.1349024713283076,0.1850143539400599,3
3.491243432574431,223,170,0.09447137369284385,-1.680878678509685,3
3.4938704028021017,224,170,-0.5308261583923732,-0.13786112242041698,3
3.496497373029772,225,170,-1.1561236904775902,1.405156433668851,3
3.499124343257443,225,170,-1.1561236904775902,1.405156433668851,3
3.501751313485114,225,169,0.5096049392430905,1.7280319100293278,3
3.504378283712785,224,169,1.1349024713283076,0.1850143539400599,3
3.5070052539404553,224,169,1.1349024713283076,0.1850143539400599,3
3.509632224168126,224,169,1.1349024713283076,0.1850143539400599,3
3.512259194395797,225,170,-1.1561236904775902,1.405156433668851,3
3.5148861646234675,224,170,-0.5308261583923732,-0.13786112242041698,3
3.5175131348511384,224,170,-0.5308261583923732,-0.13786112242041698,3
3.5201401050788093,224,170,-0.5308261583923732,-0.13786112242041698,3
3.5227670753064797,224,169,1.1349024713283076,0.1850143539400599,3
3.5253940455341506,223,170,0.09447137369284385,-1.680878678509685,3
3.5280210157618215,224,170,-0.5308261583923732,-0.13786112242041698,3
3.530647985989492,224,169,1.1349024713283076,0.1850143539400599,3
3.533274956217163,224,169,1.1349024713283076,0.1850143539400599,3
3.5359019264448337,225,170,-1.1561236904775902,1.405156433668851,3
3.5385288966725046,224,170,-0.5308261583923732,-0.13786112242041698,3
3.541155866900175,224,169,1.1349024713283076,0.1850143539400599,3
3.543782837127846,224,170,-0.5308261583923732,-0.13786112242041698,3
3.546409807355517,223,171,-1.5712572560278366,-2.0037541548701623,3
3.5490367775831873,225,170,-1.1561236904775902,1.405156433668851,3
3.551663747810858,224,170,-0.5308261583923732,-0.13786112242041698,3
3.554290718038529,224,170,-0.5308261583923732,-0.13786112242041698,3
3.5569176882661995,224,169,1.1349024713283076,0.1850143539400599,3
3.5595446584938704,223,170,0.09447137369284385,-1.680878678509685,3
3.5621716287215412,223,171,-1.5712572560278366,-2.0037541548701623,3
3.564798598949212,224,170,-0.5308261583923732,-0.13786112242041698,3
3.5674255691768826,224,170,-0.5308261583923732,-0.13786112242041698,3
3.5700525394045535,224,170,-0.5308261583923732,-0.13786112242041698,3
3.5726795096322244,225,170,-1.1561236904775902,1.405156433668851,3
3.575306479859895,224,170,-0.5308261583923732,-0.13786112242041698,3
3.5779334500875657,224,169,1.1349024713283076,0.1850143539400599,3
3.5805604203152366,223,171,-1.5712572560278366,-2.0037541548701623,3
3.583187390542907,224,170,-0.5308261583923732,-0.13786112242041698,3
3.585814360770578,224,169,1.1349024713283076,0.1850143539400599,3
3.588441330998249,224,169,1.1349024713283076,0.1850143539400599,3
3.5910683012259192,225,170,-1.1561236904775902,1.405156433668851,3
3.59369527145359,224,170,-0.5308261583923732,-0.13786112242041698,3
3.596322241681261,224,169,1.1349024713283076,0.1850143539400599,3
3.598949211908932,224,169,1.1349024713283076,0.1850143539400599,3
3.6015761821366024,223,170,0.09447137369284385,-1.680878678509685,3
3.6042031523642732,225,170,-1.1561236904775902,1.405156433668851,3
3.606830122591944,224,170,-0.5308261583923732,-0.13786112242041698,3
3.6094570928196146,224,170,-0.5308261583923732,-0.13786112242041698,3
3.6120840630472855,224,169,1.1349024713283076,0.1850143539400599,3
3.6147110332749564,223,170,0.09447137369284385,-1.680878678509685,3
3.617338003502627,223,171,-1.5712572560278366,-2.0037541548701623,3
3.6199649737302977,224,170,-0.5308261583923732,-0.13786112242041698,3
3.6225919439579686,224,169,1.1349024713283076,0.1850143539400599,3
3.6252189141856395,224,170,-0.5308261583923732,-0.13786112242041698,3
3.62784588441331,225,170,-1.1561236904775902,1.405156433668851,3
3.630472854640981,224,169,1.1349024713283076,0.1850143539400599,3
3.6330998248686517,224,169,1.1349024713283076,0.1850143539400599,3
3.635726795096322,223,170,0.09447137369284385,-1.680878678509685,3
3.638353765323993,225,170,-1.1561236904775902,1.405156433668851,3
3.640980735551664,224,170,-0.5308261583923732,-0.13786112242041698,3
3.6436077057793343,224,170,-0.5308261583923732,-0.13786112242041698,3
3.6462346760070052,224,169,1.1349024713283076,0.1850143539400599,3
3.648861646234676,225,170,-1.1561236904775902,1.405156433668851,3
3.6514886164623466,224,169,1.1349024713283076,0.1850143539400599,3
3.6541155866900175,224,169,1.1349024713283076,0.1850143539400599,3
3.6567425569176883,224,170,-0.5308261583923732,-0.13786112242041698,3
3.6593695271453592,224,169,1.1349024713283076,0.1850143539400599,3
3.6619964973730297,224,170,-0.5308261583923732,-0.13786112242041698,3
3.6646234676007006,225,170,-1.1561236904775902,1.405156433668851,3
3.6672504378283715,224,170,-0.5308261583923732,-0.13786112242041698,3
3.669877408056042,224,169,1.1349024713283076,0.1850143539400599,3
3.672504378283713,223,170,0.09447137369284385,-1.680878678509685,3
3.6751313485113837,223,171,-1.5712572560278366,-2.0037541548701623,3
3.677758318739054,223,171,-1.5712572560278366,-2.0037541548701623,3
3.680385288966725,225,170,-1.1561236904775902,1.405156433668851,3
3.683012259194396,225,170,-1.1561236904775902,1.405156433668851,3
3.685639229422067,225,170,-1.1561236904775902,1.405156433668851,3
3.6882661996497372,224,169,1.1349024713283076,0.1850143539400599,3
3.690893169877408,224,170,-0.5308261583923732,-0.13786112242041698,3
3.693520140105079,223,171,-1.5712572560278366,-2.0037541548701623,3
3.6961471103327495,225,170,-1.1561236904775902,1.405156433668851,3
3.6987740805604203,225,170,-1.1561236904775902,1.405156433668851,3
3.7014010507880912,225,169,0.5096049392430905,1.7280319100293278,3
3.7040280210157617,224,169,1.1349024713283076,0.1850143539400599,3
3.7066549912434326,224,169,1.1349024713283076,0.1850143539400599,3
3.7092819614711035,224,169,1.1349024713283076,0.1850143539400599,3
3.711908931698774,224,170,-0.5308261583923732,-0.13786112242041698,3
3.714535901926445,224,170,-0.5308261583923732,-0.13786112242041698,3
3.7171628721541157,224,170,-0.5308261583923732,-0.13786112242041698,3
3.7197898423817866,224,170,-0.5308261583923732,-0.13786112242041698,3
3.722416812609457,224,169,1.1349024713283076,0.1850143539400599,3
3.725043782837128,224,170,-0.5308261583923732,-0.13786112242041698,3
3.727670753064799,223,171,-1.5712572560278366,-2.0037541548701623,3
3.7302977232924692,224,170,-0.5308261583923732,-0.13786112242041698,3
3.73292469352014,224,170,-0.5308261583923732,-0.13786112242041698,3
3.735551663747811,224,170,-0.5308261583923732,-0.13786112242041698,3
3.7381786339754814,224,170,-0.5308261583923732,-0.13786112242041698,3
3.7408056042031523,224,169,1.1349024713283076,0.1850143539400599,3
3.7434325744308232,223,171,-1.5712572560278366,-2.0037541548701623,3
3.746059544658494,223,170,0.09447137369284385,-1.680878678509685,3
3.7486865148861646,223,171,-1.5712572560278366,-2.0037541548701623,3
3.7513134851138354,225,170,-1.1561236904775902,1.405156433668851,3
3.7539404553415063,224,170,-0.5308261583923732,-0.13786112242041698,3
3.7565674255691768,224,169,1.1349024713283076,0.1850143539400599,3
3.7591943957968477,224,169,1.1349024713283076,0.1850143539400599,3
3.7618213660245186,223,170,0.09447137369284385,-1.680878678509685,3
3.764448336252189,223,171,-1.5712572560278366,-2.0037541548701623,3
3.76707530647986,224,170,-0.5308261583923732,-0.13786112242041698,3
3.7697022767075308,224,169,1.1349024713283076,0.1850143539400599,3
3.772329246935201,224,170,-0.5308261583923732,-0.13786112242041698,3
3.774956217162872,224,170,-0.5308261583923732,-0.13786112242041698,3
3.777583187390543,224,170,-0.5308261583923732,-0.13786112242041698,3
3.780210157618214,223,170,0.09447137369284385,-1.680878678509685,3
3.7828371278458843,223,171,-1.5712572560278366,-2.0037541548701623,3
3.785464098073555,224,170,-0.5308261583923732,-0.13786112242041698,3
3.788091068301226,224,170,-0.5308261583923732,-0.13786112242041698,3
3.7907180385288965,224,170,-0.5308261583923732,-0.13786112242041698,3
3.7933450087565674,224,170,-0.5308261583923732,-0.13786112242041698,3
3.7959719789842383,224,170,-0.5308261583923732,-0.13786112242041698,3
3.7985989492119088,223,171,-1.5712572560278366,-2.0037541548701623,3
3.8012259194395797,223,171,-1.5712572560278366,-2.0037541548701623,3
3.8038528896672505,224,170,-0.5308261583923732,-0.13786112242041698,3
3.8064798598949214,225,170,-1.1561236904775902,1.405156433668851,3
3.809106830122592,226,170,-1.7814212225628072,2.948173989758119,3
3.8117338003502628,225,170,-1.1561236904775902,1.405156433668851,3
3.8143607705779337,224,169,1.1349024713283076,0.1850143539400599,3
3.816987740805604,224,169,1.1349024713283076,0.1850143539400599,3
3.819614711033275,224,169,1.1349024713283076,0.1850143539400599,3
3.822241681260946,223,170,0.09447137369284385,-1.680878678509685,3
3.8248686514886163,225,170,-1.1561236904775902,1.405156433668851,3
3.827495621716287,225,170,-1.1561236904775902,1.405156433668851,3
3.830122591943958,225,170,-1.1561236904775902,1.405156433668851,3
3.8327495621716285,224,169,1.1349024713283076,0.1850143539400599,3
3.8353765323992994,224,169,1.1349024713283076,0.1850143539400599,3
3.8380035026269703,224,169,1.1349024713283076,0.1850143539400599,3
3.840630472854641,223,170,0.09447137369284385,-1.680878678509685,3
3.8432574430823117,223,171,-1.5712572560278366,-2.0037541548701623,3
3.8458844133099825,225,170,-1.1561236904775902,1.405156433668851,3
3.8485113835376534,224,170,-0.5308261583923732,-0.13786112242041698,3
3.851138353765324,224,169,1.1349024713283076,0.1850143539400599,3
3.8537653239929948,224,170,-0.5308261583923732,-0.13786112242041698,3
3.8563922942206657,223,170,0.09447137369284385,-1.680878678509685,3
3.859019264448336,224,170,-0.5308261583923732,-0.13786112242041698,3
3.861646234676007,224,170,-0.5308261583923732,-0.13786112242041698,3
3.864273204903678,224,169,1.1349024713283076,0.1850143539400599,3
3.8669001751313488,225,170,-1.1561236904775902,1.405156433668851,3
3.869527145359019,224,169,1.1349024713283076,0.1850143539400599,3
3.87215411558669,224,169,1.1349024713283076,0.1850143539400599,3
3.874781085814361,223,170,0.09447137369284385,-1.680878678509685,3
3.8774080560420314,225,170,-1.1561236904775902,1.405156433668851,3
3.8800350262697023,224,170,-0.5308261583923732,-0.13786112242041698,3
3.882661996497373,225,170,-1.1561236904775902,1.405156433668851,3
3.8852889667250436,225,169,0.5096049392430905,1.7280319100293278,3
3.8879159369527145,224,169,1.1349024713283076,0.1850143539400599,3
3.8905429071803854,224,170,-0.5308261583923732,-0.13786112242041698,3
3.893169877408056,223,170,0.09447137369284385,-1.680878678509685,3
3.8957968476357268,225,170,-1.1561236904775902,1.405156433668851,3
3.8984238178633976,224,170,-0.5308261583923732,-0.13786112242041698,3
3.9010507880910685,224,170,-0.5308261583923732,-0.13786112242041698,3
3.903677758318739,224,169,1.1349024713283076,0.1850143539400599,3
3.90630472854641,225,170,-1.1561236904775902,1.405156433668851,3
3.9089316987740808,224,169,1.1349024713283076,0.1850143539400599,3
3.911558669001751,224,169,1.1349024713283076,0.1850143539400599,3
3.914185639229422,224,170,-0.5308261583923732,-0.13786112242041698,3
3.916812609457093,225,170,-1.1561236904775902,1.405156433668851,3
3.9194395796847634,224,170,-0.5308261583923732,-0.13786112242041698,3
3.9220665499124343,224,169,1.1349024713283076,0.1850143539400599,3
3.924693520140105,224,169,1.1349024713283076,0.1850143539400599,3
3.9273204903677756,223,170,0.09447137369284385,-1.680878678509685,3
3.9299474605954465,223,169,1.7602000034135248,-1.3580032021492083,3
3.9325744308231174,225,170,-1.1561236904775902,1.405156433668851,3
3.9352014010507883,224,169,1.1349024713283076,0.1850143539400599,3
3.9378283712784588,224,169,1.1349024713283076,0.1850143539400599,3
3.9404553415061296,224,169,1.1349024713283076,0.1850143539400599,3
3.9430823117338005,224,169,1.1349024713283076,0.1850143539400599,3
3.945709281961471,223,171,-1.5712572560278366,-2.0037541548701623,3
3.948336252189142,225,170,-1.1561236904775902,1.405156433668851,3
3.9509632224168127,224,169,1.1349024713283076,0.1850143539400599,3
3.953590192644483,225,170,-1.1561236904775902,1.405156433668851,3
3.956217162872154,225,170,-1.1561236904775902,1.405156433668851,3
3.958844133099825,224,169,1.1349024713283076,0.1850143539400599,3
3.961471103327496,224,169,1.1349024713283076,0.1850143539400599,3
3.9640980735551663,223,170,0.09447137369284385,-1.680878678509685,3
3.966725043782837,224,170,-0.5308261583923732,-0.13786112242041698,3
3.969352014010508,224,169,1.1349024713283076,0.1850143539400599,3
3.9719789842381785,224,169,1.1349024713283076,0.1850143539400599,3
3.9746059544658494,224,170,-0.5308261583923732,-0.13786112242041698,3
3.9772329246935203,224,169,1.1349024713283076,0.1850143539400599,3
3.9798598949211907,224,169,1.1349024713283076,0.1850143539400599,3
3.9824868651488616,223,171,-1.5712572560278366,-2.0037541548701623,3
3.9851138353765325,224,169,1.1349024713283076,0.1850143539400599,3
3.987740805604203,224,170,-0.5308261583923732,-0.13786112242041698,3
3.990367775831874,224,169,1.1349024713283076,0.1850143539400599,3
3.9929947460595447,225,170,-1.1561236904775902,1.405156433668851,3
3.9956217162872156,224,169,1.1349024713283076,0.1850143539400599,3
3.998248686514886,224,169,1.1349024713283076,0.1850143539400599,3
4.000875656742557,224,169,1.1349024713283076,0.1850143539400599,3
4.003502626970228,223,171,-1.5712572560278366,-2.0037541548701623,3
4.006129597197899,224,170,-0.5308261583923732,-0.13786112242041698,3
4.00875656742557,224,170,-0.5308261583923732,-0.13786112242041698,3
4.01138353765324,224,169,1.1349024713283076,0.1850143539400599,3
4.0140105078809105,224,169,1.1349024713283076,0.1850143539400599,3
4.016637478108581,224,169,1.1349024713283076,0.1850143539400599,3
4.019264448336252,223,171,-1.5712572560278366,-2.0037541548701623,3
4.021891418563923,225,170,-1.1561236904775902,1.405156433668851,3
4.024518388791594,224,170,-0.5308261583923732,-0.13786112242041698,3
4.027145359019264,224,169,1.1349024713283076,0.1850143539400599,3
4.029772329246935,225,170,-1.1561236904775902,1.405156433668851,3
4.032399299474606,224,170,-0.5308261583923732,-0.13786112242041698,3
4.035026269702277,224,169,1.1349024713283076,0.1850143539400599,3
4.037653239929948,224,169,1.1349024713283076,0.1850143539400599,3
4.0402802101576185,225,169,0.5096049392430905,1.7280319100293278,3
4.042907180385289,224,169,1.1349024713283076,0.1850143539400599,3
4.045534150612959,224,169,1.1349024713283076,0.1850143539400599,3
4.04816112084063,225,170,-1.1561236904775902,1.405156433668851,3
4.050788091068301,224,169,1.1349024713283076,0.1850143539400599,3
4.053415061295972,224,169,1.1349024713283076,0.1850143539400599,3
4.056042031523643,224,169,1.1349024713283076,0.1850143539400599,3
4.058669001751314,223,171,-1.5712572560278366,-2.0037541548701623,3
4.061295971978984,225,170,-1.1561236904775902,1.405156433668851,3
4.063922942206655,224,170,-0.5308261583923732,-0.13786112242041698,3
4.066549912434326,224,170,-0.5308261583923732,-0.13786112242041698,3
4.0691768826619965,224,169,1.1349024713283076,0.1850143539400599,3
4.071803852889667,223,171,-1.5712572560278366,-2.0037541548701623,3
4.074430823117338,224,170,-0.5308261583923732,-0.13786112242041698,3
4.077057793345009,224,169,1.1349024713283076,0.1850143539400599,3
4.079684763572679,224,169,1.1349024713283076,0.1850143539400599,3
4.08231173380035,225,170,-1.1561236904775902,1.405156433668851,3
4.084938704028021,225,170,-1.1561236904775902,1.405156433668851,3
4.087565674255692,224,169,1.1349024713283076,0.1850143539400599,3
4.090192644483363,224,169,1.1349024713283076,0.1850143539400599,3
4.092819614711034,223,170,0.09447137369284385,-1.680878678509685,3
4.095446584938704,224,170,-0.5308261583923732,-0.13786112242041698,3
4.0980735551663745,224,169,1.1349024713283076,0.1850143539400599,3
4.100700525394045,224,170,-0.5308261583923732,-0.13786112242041698,3
4.103327495621716,224,169,1.1349024713283076,0.1850143539400599,3
4.105954465849387,225,169,0.5096049392430905,1.7280319100293278,3
4.108581436077058,224,169,1.1349024713283076,0.1850143539400599,3
4.111208406304729,224,169,1.1349024713283076,0.1850143539400599,3
4.113835376532399,224,169,1.1349024713283076,0.1850143539400599,3
4.11646234676007,224,170,-0.5308261583923732,-0.13786112242041698,3
4.119089316987741,224,170,-0.5308261583923732,-0.13786112242041698,3
4.121716287215412,224,169,1.1349024713283076,0.1850143539400599,3
4.1243432574430825,224,169,1.1349024713283076,0.1850143539400599,3
4.126970227670753,223,170,0.09447137369284385,-1.680878678509685,3
4.129597197898424,223,171,-1.5712572560278366,-2.0037541548701623,3
4.132224168126094,225,170,-1.1561236904775902,1.405156433668851,3
4.134851138353765,224,170,-0.5308261583923732,-0.13786112242041698,3
4.137478108581436,224,169,1.1349024713283076,0.1850143539400599,3
4.140105078809107,225,170,-1.1561236904775902,1.405156433668851,3
4.142732049036778,224,169,1.1349024713283076,0.1850143539400599,3
4.145359019264449,223,170,0.09447137369284385,-1.680878678509685,3
4.147985989492119,225,170,-1.1561236904775902,1.405156433668851,3
4.15061295971979,224,169,1.1349024713283076,0.1850143539400599,3
4.1532399299474605,224,169,1.1349024713283076,0.1850143539400599,3
4.155866900175131,225,170,-1.1561236904775902,1.405156433668851,3
4.158493870402802,224,170,-0.5308261583923732,-0.13786112242041698,3
4.161120840630473,224,169,1.1349024713283076,0.1850143539400599,3
4.163747810858144,224,169,1.1349024713283076,0.1850143539400599,3
4.166374781085814,223,170,0.09447137369284385,-1.680878678509685,3
4.169001751313485,224,170,-0.5308261583923732,-0.13786112242041698,3
4.171628721541156,224,170,-0.5308261583923732,-0.13786112242041698,3
4.174255691768827,224,170,-0.5308261583923732,-0.13786112242041698,3
4.176882661996498,224,169,1.1349024713283076,0.1850143539400599,3
4.1795096322241685,224,169,1.1349024713283076,0.1850143539400599,3
4.1821366024518385,223,169,1.7602000034135248,-1.3580032021492083,3
4.184763572679509,223,170,0.09447137369284385,-1.680878678509685,3
4.18739054290718,224,169,1.1349024713283076,0.1850143539400599,3
4.190017513134851,224,169,1.1349024713283076,0.1850143539400599,3
4.192644483362522,225,170,-1.1561236904775902,1.405156433668851,3
4.195271453590193,225,169,0.5096049392430905,1.7280319100293278,3
4.197898423817864,224,169,1.1349024713283076,0.1850143539400599,3
4.200525394045534,224,169,1.1349024713283076,0.1850143539400599,3
4.203152364273205,223,171,-1.5712572560278366,-2.0037541548701623,3
4.205779334500876,223,171,-1.5712572560278366,-2.0037541548701623,3
4.2084063047285465,224,171,-2.196554788113054,-0.4607365987808939,3
4.211033274956217,225,170,-1.1561236904775902,1.405156433668851,3
4.213660245183888,225,170,-1.1561236904775902,1.405156433668851,3
4.216287215411558,224,169,1.1349024713283076,0.1850143539400599,3
4.218914185639229,224,169,1.1349024713283076,0.1850143539400599,3
4.2215411558669,223,170,0.09447137369284385,-1.680878678509685,3
4.224168126094571,224,169,1.1349024713283076,0.1850143539400599,3
4.226795096322242,225,169,0.5096049392430905,1.7280319100293278,3
4.229422066549913,225,170,-1.1561236904775902,1.405156433668851,3
4.232049036777584,225,170,-1.1561236904775902,1.405156433668851,3
4.234676007005254,224,169,1.1349024713283076,0.1850143539400599,3
4.2373029772329245,224,169,1.1349024713283076,0.1850143539400599,3
4.239929947460595,223,170,0.09447137369284385,-1.680878678509685,3
4.242556917688266,225,170,-1.1561236904775902,1.405156433668851,3
4.245183887915937,224,170,-0.5308261583923732,-0.13786112242041698,3
4.247810858143608,224,170,-0.5308261583923732,-0.13786112242041698,3
4.250437828371279,224,170,-0.5308261583923732,-0.13786112242041698,3
4.253064798598949,224,170,-0.5308261583923732,-0.13786112242041698,3
4.25569176882662,224,169,1.1349024713283076,0.1850143539400599,3
4.258318739054291,223,171,-1.5712572560278366,-2.0037541548701623,3
4.260945709281962,223,171,-1.5712572560278366,-2.0037541548701623,3
4.2635726795096325,225,170,-1.1561236904775902,1.405156433668851,3
4.266199649737303,224,170,-0.5308261583923732,-0.13786112242041698,3
4.268826619964973,224,170,-0.5308261583923732,-0.13786112242041698,3
4.271453590192644,224,170,-0.5308261583923732,-0.13786112242041698,3
4.274080560420315,223,170,0.09447137369284385,-1.680878678509685,3
4.276707530647986,223,171,-1.5712572560278366,-2.0037541548701623,3
4.279334500875657,223,171,-1.5712572560278366,-2.0037541548701623,3
4.281961471103328,224,170,-0.5308261583923732,-0.13786112242041698,3
4.284588441330999,225,169,0.5096049392430905,1.7280319100293278,3
4.287215411558669,225,169,0.5096049392430905,1.7280319100293278,3
4.28984238178634,224,169,1.1349024713283076,0.1850143539400599,3
4.2924693520140105,224,169,1.1349024713283076,0.1850143539400599,3
4.295096322241681,224,169,1.1349024713283076,0.1850143539400599,3
4.297723292469352,223,171,-1.5712572560278366,-2.0037541548701623,3
4.300350262697023,225,170,-1.1561236904775902,1.405156433668851,3
4.302977232924693,225,170,-1.1561236904775902,1.405156433668851,3
4.305604203152364,225,169,0.5096049392430905,1.7280319100293278,3
4.308231173380035,224,169,1.1349024713283076,0.1850143539400599,3
4.310858143607706,224,169,1.1349024713283076,0.1850143539400599,3
4.313485113835377,223,171,-1.5712572560278366,-2.0037541548701623,3
4.316112084063048,225,170,-1.1561236904775902,1.405156433668851,3
4.3187390542907185,224,169,1.1349024713283076,0.1850143539400599,3
4.3213660245183885,224,170,-0.5308261583923732,-0.13786112242041698,3
4.323992994746059,224,170,-0.5308261583923732,-0.13786112242041698,3
4.32661996497373,223,170,0.09447137369284385,-1.680878678509685,3
4.329246935201401,224,170,-0.5308261583923732,-0.13786112242041698,3
4.331873905429072,224,169,1.1349024713283076,0.1850143539400599,3
4.334500875656743,224,169,1.1349024713283076,0.1850143539400599,3
4.337127845884413,225,170,-1.1561236904775902,1.405156433668851,3
4.339754816112084,224,170,-0.5308261583923732,-0.13786112242041698,3
4.342381786339755,224,169,1.1349024713283076,0.1850143539400599,3
4.345008756567426,224,169,1.1349024713283076,0.1850143539400599,3
4.3476357267950965,223,169,1.7602000034135248,-1.3580032021492083,3
4.350262697022767,225,170,-1.1561236904775902,1.405156433668851,3
4.352889667250438,224,169,1.1349024713283076,0.1850143539400599,3
4.355516637478108,225,170,-1.1561236904775902,1.405156433668851,3
4.358143607705779,224,169,1.1349024713283076,0.1850143539400599,3
4.36077057793345,224,169,1.1349024713283076,0.1850143539400599,3
4.363397548161121,224,169,1.1349024713283076,0.1850143539400599,3
4.366024518388792,224,169,1.1349024713283076,0.1850143539400599,3
4.368651488616463,223,170,0.09447137369284385,-1.680878678509685,3
4.371278458844133,223,171,-1.5712572560278366,-2.0037541548701623,3
4.373905429071804,225,170,-1.1561236904775902,1.405156433668851,3
4.3765323992994745,225,170,-1.1561236904775902,1.405156433668851,3
4.379159369527145,224,170,-0.5308261583923732,-0.13786112242041698,3
4.381786339754816,224,169,1.1349024713283076,0.1850143539400599,3
4.384413309982487,224,169,1.1349024713283076,0.1850143539400599,3
4.387040280210158,223,169,1.7602000034135248,-1.3580032021492083,3
4.389667250437828,224,170,-0.5308261583923732,-0.13786112242041698,3
4.392294220665499,225,170,-1.1561236904775902,1.405156433668851,3
4.39492119089317,224,170,-0.5308261583923732,-0.13786112242041698,3
4.397548161120841,224,169,1.1349024713283076,0.1850143539400599,3
4.400175131348512,224,169,1.1349024713283076,0.1850143539400599,3
4.4028021015761825,223,171,-1.5712572560278366,-2.0037541548701623,3
4.405429071803853,223,170,0.09447137369284385,-1.680878678509685,3
4.408056042031523,224,170,-0.5308261583923732,-0.13786112242041698,3
4.410683012259194,224,170,-0.5308261583923732,-0.13786112242041698,3
4.413309982486865,224,170,-0.5308261583923732,-0.13786112242041698,3
4.415936952714536,225,170,-1.1561236904775902,1.405156433668851,3
4.418563922942207,224,169,1.1349024713283076,0.1850143539400599,3
4.421190893169878,224,169,1.1349024713283076,0.1850143539400599,3
4.423817863397548,224,169,1.1349024713283076,0.1850143539400599,3
4.426444833625219,224,170,-0.5308261583923732,-0.13786112242041698,3
4.42907180385289,224,169,1.1349024713283076,0.1850143539400599,3
4.4316987740805605,225,170,-1.1561236904775902,1.405156433668851,3
4.434325744308231,224,169,1.1349024713283076,0.1850143539400599,3
4.436952714535902,224,169,1.1349024713283076,0.1850143539400599,3
4.439579684763573,223,170,0.09447137369284385,-1.680878678509685,3
4.442206654991243,224,170,-0.5308261583923732,-0.13786112242041698,3
4.444833625218914,224,169,1.1349024713283076,0.1850143539400599,3
4.447460595446585,224,169,1.1349024713283076,0.1850143539400599,3
4.450087565674256,225,170,-1.1561236904775902,1.405156433668851,3
4.452714535901927,224,169,1.1349024713283076,0.1850143539400599,3
4.455341506129598,224,169,1.1349024713283076,0.1850143539400599,3
4.457968476357268,224,169,1.1349024713283076,0.1850143539400599,3
4.4605954465849385,223,170,0.09447137369284385,-1.680878678509685,3
4.463222416812609,225,170,-1.1561236904775902,1.405156433668851,3
4.46584938704028,224,170,-0.5308261583923732,-0.13786112242041698,3
4.468476357267951,224,169,1.1349024713283076,0.1850143539400599,3
4.471103327495622,224,170,-0.5308261583923732,-0.13786112242041698,3
4.473730297723293,223,170,0.09447137369284385,-1.680878678509685,3
4.476357267950963,223,171,-1.5712572560278366,-2.0037541548701623,3
4.478984238178634,224,170,-0.5308261583923732,-0.13786112242041698,3
4.481611208406305,224,169,1.1349024713283076,0.1850143539400599,3
4.484238178633976,224,170,-0.5308261583923732,-0.13786112242041698,3
4.4868651488616464,224,169,1.1349024713283076,0.1850143539400599,3
4.489492119089317,225,170,-1.1561236904775902,1.405156433668851,3
4.492119089316987,224,169,1.1349024713283076,0.1850143539400599,3
4.494746059544658,224,169,1.1349024713283076,0.1850143539400599,3
4.497373029772329,224,169,1.1349024713283076,0.1850143539400599,3
4.5,224,169,1.1349024713283076,0.1850143539400599,3
4.502626970227671,225,170,-1.1561236904775902,1.405156433668851,3
4.505253940455342,224,170,-0.5308261583923732,-0.13786112242041698,3
4.507880910683013,224,169,1.1349024713283076,0.1850143539400599,3
4.510507880910683,224,169,1.1349024713283076,0.1850143539400599,3
4.5131348511383536,223,170,0.09447137369284385,-1.680878678509685,3
4.515761821366024,223,171,-1.5712572560278366,-2.0037541548701623,3
4.518388791593695,225,170,-1.1561236904775902,1.405156433668851,3
4.521015761821366,224,170,-0.5308261583923732,-0.13786112242041698,3
4.523642732049037,224,170,-0.5308261583923732,-0.13786112242041698,3
4.526269702276708,224,169,1.1349024713283076,0.1850143539400599,3
4.528896672504378,223,170,0.09447137369284385,-1.680878678509685,3
4.531523642732049,224,170,-0.5308261583923732,-0.13786112242041698,3
4.53415061295972,224,169,1.1349024713283076,0.1850143539400599,3
4.536777583187391,224,169,1.1349024713283076,0.1850143539400599,3
4.5394045534150615,225,170,-1.1561236904775902,1.405156433668851,3
4.542031523642732,224,170,-0.5308261583923732,-0.13786112242041698,3
4.544658493870402,224,169,1.1349024713283076,0.1850143539400599,3
4.547285464098073,224,169,1.1349024713283076,0.1850143539400599,3
4.549912434325744,223,170,0.09447137369284385,-1.680878678509685,3
4.552539404553415,224,170,-0.5308261583923732,-0.13786112242041698,3
4.555166374781086,224,170,-0.5308261583923732,-0.13786112242041698,3
4.557793345008757,225,170,-1.1561236904775902,1.405156433668851,3
4.560420315236428,224,170,-0.5308261583923732,-0.13786112242041698,3
4.563047285464098,224,169,1.1349024713283076,0.1850143539400599,3
4.565674255691769,224,169,1.1349024713283076,0.1850143539400599,3
4.5683012259194395,223,171,-1.5712572560278366,-2.0037541548701623,3
4.57092819614711,225,170,-1.1561236904775902,1.405156433668851,3
4.573555166374781,224,169,1.1349024713283076,0.1850143539400599,3
4.576182136602452,224,170,-0.5308261583923732,-0.13786112242041698,3
4.578809106830122,224,169,1.1349024713283076,0.1850143539400599,3
4.581436077057793,224,169,1.1349024713283076,0.1850143539400599,3
4.584063047285464,224,169,1.1349024713283076,0.1850143539400599,3
4.586690017513135,223,171,-1.5712572560278366,-2.0037541548701623,3
4.589316987740806,223,170,0.09447137369284385,-1.680878678509685,3
4.591943957968477,224,170,-0.5308261583923732,-0.13786112242041698,3
4.5945709281961475,224,170,-0.5308261583923732,-0.13786112242041698,3
4.5971978984238175,224,169,1.1349024713283076,0.1850143539400599,3
4.599824868651488,224,169,1.1349024713283076,0.1850143539400599,3
4.602451838879159,223,170,0.09447137369284385,-1.680878678509685,3
4.60507880910683,223,171,-1.5712572560278366,-2.0037541548701623,3
4.607705779334501,224,170,-0.5308261583923732,-0.13786112242041698,3
4.610332749562172,224,170,-0.5308261583923732,-0.13786112242041698,3
4.612959719789842,224,170,-0.5308261583923732,-0.13786112242041698,3
4.615586690017513,224,169,1.1349024713283076,0.1850143539400599,3
4.618213660245184,224,170,-0.5308261583923732,-0.13786112242041698,3
4.620840630472855,223,170,0.09447137369284385,-1.680878678509685,3
4.6234676007005255,223,170,0.09447137369284385,-1.680878678509685,3
4.626094570928196,224,170,-0.5308261583923732,-0.13786112242041698,3
4.628721541155867,224,169,1.1349024713283076,0.1850143539400599,3
4.631348511383537,225,170,-1.1561236904775902,1.405156433668851,3
4.633975481611208,224,170,-0.5308261583923732,-0.13786112242041698,3
4.636602451838879,224,169,1.1349024713283076,0.1850143539400599,3
4.63922942206655,224,169,1.1349024713283076,0.1850143539400599,3
4.641856392294221,223,170,0.09447137369284385,-1.680878678509685,3
4.644483362521892,225,170,-1.1561236904775902,1.405156433668851,3
4.647110332749563,224,170,-0.5308261583923732,-0.13786112242041698,3
4.649737302977233,224,169,1.1349024713283076,0.1850143539400599,3
