Timestamp,Raw_EMG1,Raw_EMG2,IC1,IC2,Label
0.0,224,170,0.5016308925821823,-0.104677844149824,1
0.003004205888243541,224,169,-1.1549839184793742,0.23885252431538104,1
0.006008411776487082,223,170,-0.15513489777612482,-1.6045309423326526,1
0.009012617664730624,224,170,0.5016308925821823,-0.104677844149824,1
0.012016823552974164,224,169,-1.1549839184793742,0.23885252431538104,1
0.015021029441217705,224,169,-1.1549839184793742,0.23885252431538104,1
0.018025235329461247,225,169,-0.49821812812106714,1.7387056224982098,1
0.021029441217704788,224,171,2.158245703643739,-0.4482082126150291,1
0.024033647105948328,224,169,-1.1549839184793742,0.23885252431538104,1
0.02703785299419187,224,169,-1.1549839184793742,0.23885252431538104,1
0.03004205888243541,223,170,-0.15513489777612482,-1.6045309423326526,1
0.03304626477067895,225,170,1.1583966829404893,1.395175254033005,1
0.036050470658922494,224,169,-1.1549839184793742,0.23885252431538104,1
0.03905467654716603,225,170,1.1583966829404893,1.395175254033005,1
0.042058882435409575,224,170,0.5016308925821823,-0.104677844149824,1
0.04506308832365311,224,169,-1.1549839184793742,0.23885252431538104,1
0.048067294211896656,223,171,1.5014799132854315,-1.9480613107978577,1
0.0510715001001402,224,169,-1.1549839184793742,0.23885252431538104,1
0.05407570598838374,223,171,1.5014799132854315,-1.9480613107978577,1
0.05707991187662728,225,170,1.1583966829404893,1.395175254033005,1
0.06008411776487082,225,170,1.1583966829404893,1.395175254033005,1
0.06308832365311436,224,169,-1.1549839184793742,0.23885252431538104,1
0.0660925295413579,224,169,-1.1549839184793742,0.23885252431538104,1
0.06909673542960144,223,170,-0.15513489777612482,-1.6045309423326526,1
0.07210094131784499,225,170,1.1583966829404893,1.395175254033005,1
0.07510514720608853,224,169,-1.1549839184793742,0.23885252431538104,1
0.07810935309433206,224,169,-1.1549839184793742,0.23885252431538104,1
0.0811135589825756,224,170,0.5016308925821823,-0.104677844149824,1
0.08411776487081915,224,169,-1.1549839184793742,0.23885252431538104,1
0.0871219707590627,223,170,-0.15513489777612482,-1.6045309423326526,1
0.09012617664730622,225,170,1.1583966829404893,1.395175254033005,1
0.09313038253554977,224,169,-1.1549839184793742,0.23885252431538104,1
0.09613458842379331,225,170,1.1583966829404893,1.395175254033005,1
0.09913879431203686,224,169,-1.1549839184793742,0.23885252431538104,1
0.1021430002002804,224,170,0.5016308925821823,-0.104677844149824,1
0.10514720608852393,224,169,-1.1549839184793742,0.23885252431538104,1
0.10815141197676748,224,169,-1.1549839184793742,0.23885252431538104,1
0.11115561786501102,223,170,-0.15513489777612482,-1.6045309423326526,1
0.11415982375325456,223,170,-0.15513489777612482,-1.6045309423326526,1
0.1171640296414981,224,170,0.5016308925821823,-0.104677844149824,1
0.12016823552974164,224,169,-1.1549839184793742,0.23885252431538104,1
0.12317244141798518,224,170,0.5016308925821823,-0.104677844149824,1
0.1261766473062287,224,170,0.5016308925821823,-0.104677844149824,1
0.12918085319447226,224,169,-1.1549839184793742,0.23885252431538104,1
0.1321850590827158,223,171,1.5014799132854315,-1.9480613107978577,1
0.13518926497095934,224,170,0.5016308925821823,-0.104677844149824,1
0.1381934708592029,224,170,0.5016308925821823,-0.104677844149824,1
0.14119767674744643,224,169,-1.1549839184793742,0.23885252431538104,1
0.14420188263568998,225,170,1.1583966829404893,1.395175254033005,1
0.14720608852393352,224,169,-1.1549839184793742,0.23885252431538104,1
0.15021029441217706,224,169,-1.1549839184793742,0.23885252431538104,1
0.15321450030042058,224,169,-1.1549839184793742,0.23885252431538104,1
0.15621870618866412,224,169,-1.1549839184793742,0.23885252431538104,1
0.15922291207690767,225,170,1.1583966829404893,1.395175254033005,1
0.1622271179651512,224,170,0.5016308925821823,-0.104677844149824,1
0.16523132385339476,224,169,-1.1549839184793742,0.23885252431538104,1
0.1682355297416383,224,169,-1.1549839184793742,0.23885252431538104,1
0.17123973562988185,224,169,-1.1549839184793742,0.23885252431538104,1
0.1742439415181254,223,170,-0.15513489777612482,-1.6045309423326526,1
0.17724814740636893,224,170,0.5016308925821823,-0.104677844149824,1
0.18025235329461245,224,169,-1.1549839184793742,0.23885252431538104,1
0.183256559182856,225,170,1.1583966829404893,1.395175254033005,1
0.18626076507109954,225,170,1.1583966829404893,1.395175254033005,1
0.18926497095934308,225,170,1.1583966829404893,1.395175254033005,1
0.19226917684758663,224,169,-1.1549839184793742,0.23885252431538104,1
0.19527338273583017,224,169,-1.1549839184793742,0.23885252431538104,1
0.19827758862407371,224,169,-1.1549839184793742,0.23885252431538104,1
0.20128179451231726,223,171,1.5014799132854315,-1.9480613107978577,1
0.2042860004005608,225,170,1.1583966829404893,1.395175254033005,1
0.20729020628880432,225,170,1.1583966829404893,1.395175254033005,1
0.21029441217704786,224,170,0.5016308925821823,-0.104677844149824,1
0.2132986180652914,224,169,-1.1549839184793742,0.23885252431538104,1
0.21630282395353495,224,169,-1.1549839184793742,0.23885252431538104,1
0.2193070298417785,223,170,-0.15513489777612482,-1.6045309423326526,1
0.22231123573002204,225,170,1.1583966829404893,1.395175254033005,1
0.22531544161826558,224,169,-1.1549839184793742,0.23885252431538104,1
0.22831964750650913,225,170,1.1583966829404893,1.395175254033005,1
0.23132385339475267,225,169,-0.49821812812106714,1.7387056224982098,1
0.2343280592829962,224,169,-1.1549839184793742,0.23885252431538104,1
0.23733226517123973,223,169,-1.8117497088376815,-1.2610005738674475,1
0.24033647105948328,223,171,1.5014799132854315,-1.9480613107978577,1
0.24334067694772682,225,170,1.1583966829404893,1.395175254033005,1
0.24634488283597036,224,170,0.5016308925821823,-0.104677844149824,1
0.2493490887242139,224,170,0.5016308925821823,-0.104677844149824,1
0.2523532946124574,224,169,-1.1549839184793742,0.23885252431538104,1
0.255357500500701,223,171,1.5014799132854315,-1.9480613107978577,1
0.2583617063889445,224,169,-1.1549839184793742,0.23885252431538104,1
0.2613659122771881,223,170,-0.15513489777612482,-1.6045309423326526,1
0.2643701181654316,225,170,1.1583966829404893,1.395175254033005,1
0.26737432405367517,224,170,0.5016308925821823,-0.104677844149824,1
0.2703785299419187,224,170,0.5016308925821823,-0.104677844149824,1
0.27338273583016226,224,169,-1.1549839184793742,0.23885252431538104,1
0.2763869417184058,223,170,-0.15513489777612482,-1.6045309423326526,1
0.2793911476066493,223,171,1.5014799132854315,-1.9480613107978577,1
0.28239535349489286,224,169,-1.1549839184793742,0.23885252431538104,1
0.2853995593831364,224,170,0.5016308925821823,-0.104677844149824,1
0.28840376527137995,224,170,0.5016308925821823,-0.104677844149824,1
0.29140797115962347,224,170,0.5016308925821823,-0.104677844149824,1
0.29441217704786704,224,169,-1.1549839184793742,0.23885252431538104,1
0.29741638293611056,223,170,-0.15513489777612482,-1.6045309423326526,1
0.30042058882435413,224,170,0.5016308925821823,-0.104677844149824,1
0.30342479471259765,224,169,-1.1549839184793742,0.23885252431538104,1
0.30642900060084116,224,169,-1.1549839184793742,0.23885252431538104,1
0.30943320648908473,225,170,1.1583966829404893,1.395175254033005,1
0.31243741237732825,225,169,-0.49821812812106714,1.7387056224982098,1
0.3154416182655718,224,170,0.5016308925821823,-0.104677844149824,1
0.31844582415381534,223,170,-0.15513489777612482,-1.6045309423326526,1
0.3214500300420589,224,169,-1.1549839184793742,0.23885252431538104,1
0.3244542359303024,223,171,1.5014799132854315,-1.9480613107978577,1
0.327458441818546,224,170,0.5016308925821823,-0.104677844149824,1
0.3304626477067895,225,170,1.1583966829404893,1.395175254033005,1
0.33346685359503303,224,170,0.5016308925821823,-0.104677844149824,1
0.3364710594832766,224,169,-1.1549839184793742,0.23885252431538104,1
0.3394752653715201,223,170,-0.15513489777612482,-1.6045309423326526,1
0.3424794712597637,224,170,0.5016308925821823,-0.104677844149824,1
0.3454836771480072,223,170,-0.15513489777612482,-1.6045309423326526,1
0.3484878830362508,224,170,0.5016308925821823,-0.104677844149824,1
0.3514920889244943,225,170,1.1583966829404893,1.395175254033005,1
0.35449629481273787,225,170,1.1583966829404893,1.395175254033005,1
0.3575005007009814,224,170,0.5016308925821823,-0.104677844149824,1
0.3605047065892249,224,169,-1.1549839184793742,0.23885252431538104,1
0.36350891247746847,223,170,-0.15513489777612482,-1.6045309423326526,1
0.366513118365712,225,170,1.1583966829404893,1.395175254033005,1
0.36951732425395556,224,170,0.5016308925821823,-0.104677844149824,1
0.3725215301421991,224,170,0.5016308925821823,-0.104677844149824,1
0.37552573603044265,224,170,0.5016308925821823,-0.104677844149824,1
0.37852994191868616,224,170,0.5016308925821823,-0.104677844149824,1
0.38153414780692974,223,170,-0.15513489777612482,-1.6045309423326526,1
0.38453835369517325,224,169,-1.1549839184793742,0.23885252431538104,1
0.38754255958341677,224,169,-1.1549839184793742,0.23885252431538104,1
0.39054676547166034,225,170,1.1583966829404893,1.395175254033005,1
0.39355097135990386,225,170,1.1583966829404893,1.395175254033005,1
0.39655517724814743,225,170,1.1583966829404893,1.395175254033005,1
0.39955938313639094,224,169,-1.1549839184793742,0.23885252431538104,1
0.4025635890246345,224,169,-1.1549839184793742,0.23885252431538104,1
0.40556779491287803,223,170,-0.15513489777612482,-1.6045309423326526,1
0.4085720008011216,223,171,1.5014799132854315,-1.9480613107978577,1
0.4115762066893651,225,170,1.1583966829404893,1.395175254033005,1
0.41458041257760864,225,170,1.1583966829404893,1.395175254033005,1
0.4175846184658522,225,169,-0.49821812812106714,1.7387056224982098,1
0.4205888243540957,224,169,-1.1549839184793742,0.23885252431538104,1
0.4235930302423393,224,169,-1.1549839184793742,0.23885252431538104,1
0.4265972361305828,223,171,1.5014799132854315,-1.9480613107978577,1
0.4296014420188264,225,170,1.1583966829404893,1.395175254033005,1
0.4326056479070699,224,169,-1.1549839184793742,0.23885252431538104,1
0.4356098537953135,225,170,1.1583966829404893,1.395175254033005,1
0.438614059683557,224,170,0.5016308925821823,-0.104677844149824,1
0.4416182655718005,224,169,-1.1549839184793742,0.23885252431538104,1
0.4446224714600441,224,169,-1.1549839184793742,0.23885252431538104,1
0.4476266773482876,223,171,1.5014799132854315,-1.9480613107978577,1
0.45063088323653117,224,170,0.5016308925821823,-0.104677844149824,1
0.4536350891247747,224,170,0.5016308925821823,-0.104677844149824,1
0.45663929501301825,224,170,0.5016308925821823,-0.104677844149824,1
0.45964350090126177,224,169,-1.1549839184793742,0.23885252431538104,1
0.46264770678950534,224,169,-1.1549839184793742,0.23885252431538104,1
0.46565191267774886,223,170,-0.15513489777612482,-1.6045309423326526,1
0.4686561185659924,224,169,-1.1549839184793742,0.23885252431538104,1
0.47166032445423595,224,169,-1.1549839184793742,0.23885252431538104,1
0.47466453034247946,225,170,1.1583966829404893,1.395175254033005,1
0.47766873623072303,224,169,-1.1549839184793742,0.23885252431538104,1
0.48067294211896655,225,170,1.1583966829404893,1.395175254033005,1
0.4836771480072101,224,169,-1.1549839184793742,0.23885252431538104,1
0.48668135389545364,224,169,-1.1549839184793742,0.23885252431538104,1
0.4896855597836972,224,169,-1.1549839184793742,0.23885252431538104,1
0.4926897656719407,225,169,-0.49821812812106714,1.7387056224982098,1
0.49569397156018424,224,170,0.5016308925821823,-0.104677844149824,1
0.4986981774484278,224,169,-1.1549839184793742,0.23885252431538104,1
0.5017023833366714,224,169,-1.1549839184793742,0.23885252431538104,1
0.5047065892249148,224,170,0.5016308925821823,-0.104677844149824,1
0.5077107951131584,223,169,-1.8117497088376815,-1.2610005738674475,1
0.510715001001402,223,171,1.5014799132854315,-1.9480613107978577,1
0.5137192068896456,223,171,1.5014799132854315,-1.9480613107978577,1
0.516723412777889,225,170,1.1583966829404893,1.395175254033005,1
0.5197276186661326,225,170,1.1583966829404893,1.395175254033005,1
0.5227318245543762,225,169,-0.49821812812106714,1.7387056224982098,1
0.5257360304426196,224,169,-1.1549839184793742,0.23885252431538104,1
0.5287402363308632,224,169,-1.1549839184793742,0.23885252431538104,1
0.5317444422191068,223,171,1.5014799132854315,-1.9480613107978577,1
0.5347486481073503,223,169,-1.8117497088376815,-1.2610005738674475,1
0.5377528539955938,225,170,1.1583966829404893,1.395175254033005,1
0.5407570598838374,224,170,0.5016308925821823,-0.104677844149824,1
0.543761265772081,224,170,0.5016308925821823,-0.104677844149824,1
0.5467654716603245,223,170,-0.15513489777612482,-1.6045309423326526,1
0.549769677548568,223,171,1.5014799132854315,-1.9480613107978577,1
0.5527738834368116,224,170,0.5016308925821823,-0.104677844149824,1
0.5557780893250551,224,170,0.5016308925821823,-0.104677844149824,1
0.5587822952132986,224,169,-1.1549839184793742,0.23885252431538104,1
0.5617865011015422,225,170,1.1583966829404893,1.395175254033005,1
0.5647907069897857,224,170,0.5016308925821823,-0.104677844149824,1
0.5677949128780293,224,169,-1.1549839184793742,0.23885252431538104,1
0.5707991187662728,223,169,-1.8117497088376815,-1.2610005738674475,1
0.5738033246545163,224,170,0.5016308925821823,-0.104677844149824,1
0.5768075305427599,224,169,-1.1549839184793742,0.23885252431538104,1
0.5798117364310034,225,170,1.1583966829404893,1.395175254033005,1
0.5828159423192469,224,170,0.5016308925821823,-0.104677844149824,1
0.5858201482074905,224,170,0.5016308925821823,-0.104677844149824,1
0.5888243540957341,224,169,-1.1549839184793742,0.23885252431538104,1
0.5918285599839775,223,170,-0.15513489777612482,-1.6045309423326526,1
0.5948327658722211,224,170,0.5016308925821823,-0.104677844149824,1
0.5978369717604647,224,169,-1.1549839184793742,0.23885252431538104,1
0.6008411776487083,224,170,0.5016308925821823,-0.104677844149824,1
0.6038453835369517,224,169,-1.1549839184793742,0.23885252431538104,1
0.6068495894251953,225,170,1.1583966829404893,1.395175254033005,1
0.6098537953134389,224,169,-1.1549839184793742,0.23885252431538104,1
0.6128580012016823,224,169,-1.1549839184793742,0.23885252431538104,1
0.6158622070899259,223,170,-0.15513489777612482,-1.6045309423326526,1
0.6188664129781695,225,170,1.1583966829404893,1.395175254033005,1
0.621870618866413,224,170,0.5016308925821823,-0.104677844149824,1
0.6248748247546565,224,169,-1.1549839184793742,0.23885252431538104,1
0.6278790306429001,224,169,-1.1549839184793742,0.23885252431538104,1
0.6308832365311436,223,170,-0.15513489777612482,-1.6045309423326526,1
0.6338874424193871,224,170,0.5016308925821823,-0.104677844149824,1
0.6368916483076307,224,169,-1.1549839184793742,0.23885252431538104,1
0.6398958541958742,224,169,-1.1549839184793742,0.23885252431538104,1
0.6429000600841178,224,170,0.5016308925821823,-0.104677844149824,1
0.6459042659723613,225,170,1.1583966829404893,1.395175254033005,1
0.6489084718606049,224,170,0.5016308925821823,-0.104677844149824,1
0.6519126777488484,224,169,-1.1549839184793742,0.23885252431538104,1
0.654916883637092,223,170,-0.15513489777612482,-1.6045309423326526,1
0.6579210895253355,223,171,1.5014799132854315,-1.9480613107978577,1
0.660925295413579,225,170,1.1583966829404893,1.395175254033005,1
0.6639295013018226,224,170,0.5016308925821823,-0.104677844149824,1
0.6669337071900661,224,170,0.5016308925821823,-0.104677844149824,1
0.6699379130783096,224,169,-1.1549839184793742,0.23885252431538104,1
0.6729421189665532,224,169,-1.1549839184793742,0.23885252431538104,1
0.6759463248547968,223,170,-0.15513489777612482,-1.6045309423326526,1
0.6789505307430402,224,170,0.5016308925821823,-0.104677844149824,1
0.6819547366312838,224,170,0.5016308925821823,-0.104677844149824,1
0.6849589425195274,224,169,-1.1549839184793742,0.23885252431538104,1
0.6879631484077708,225,170,1.1583966829404893,1.395175254033005,1
0.6909673542960144,224,170,0.5016308925821823,-0.104677844149824,1
0.693971560184258,224,169,-1.1549839184793742,0.23885252431538104,1
0.6969757660725016,224,169,-1.1549839184793742,0.23885252431538104,1
0.699979971960745,223,169,-1.8117497088376815,-1.2610005738674475,1
0.7029841778489886,224,170,0.5016308925821823,-0.104677844149824,1
0.7059883837372322,224,170,0.5016308925821823,-0.104677844149824,1
0.7089925896254757,224,169,-1.1549839184793742,0.23885252431538104,1
0.7119967955137192,225,170,1.1583966829404893,1.395175254033005,1
0.7150010014019628,224,169,-1.1549839184793742,0.23885252431538104,1
0.7180052072902063,223,170,-0.15513489777612482,-1.6045309423326526,1
0.7210094131784498,224,169,-1.1549839184793742,0.23885252431538104,1
0.7240136190666934,225,170,1.1583966829404893,1.395175254033005,1
0.7270178249549369,224,169,-1.1549839184793742,0.23885252431538104,1
0.7300220308431805,224,169,-1.1549839184793742,0.23885252431538104,1
0.733026236731424,224,170,0.5016308925821823,-0.104677844149824,1
0.7360304426196675,223,170,-0.15513489777612482,-1.6045309423326526,1
0.7390346485079111,223,170,-0.15513489777612482,-1.6045309423326526,1
0.7420388543961546,223,170,-0.15513489777612482,-1.6045309423326526,1
0.7450430602843982,224,170,0.5016308925821823,-0.104677844149824,1
0.7480472661726417,224,170,0.5016308925821823,-0.104677844149824,1
0.7510514720608853,224,169,-1.1549839184793742,0.23885252431538104,1
0.7540556779491288,224,170,0.5016308925821823,-0.104677844149824,1
0.7570598838373723,224,170,0.5016308925821823,-0.104677844149824,1
0.7600640897256159,223,171,1.5014799132854315,-1.9480613107978577,1
0.7630682956138595,224,170,0.5016308925821823,-0.104677844149824,1
0.7660725015021029,224,170,0.5016308925821823,-0.104677844149824,1
0.7690767073903465,224,169,-1.1549839184793742,0.23885252431538104,1
0.7720809132785901,225,170,1.1583966829404893,1.395175254033005,1
0.7750851191668335,224,170,0.5016308925821823,-0.104677844149824,1
0.7780893250550771,224,169,-1.1549839184793742,0.23885252431538104,1
0.7810935309433207,224,169,-1.1549839184793742,0.23885252431538104,1
0.7840977368315643,224,169,-1.1549839184793742,0.23885252431538104,1
0.7871019427198077,224,170,0.5016308925821823,-0.104677844149824,1
0.7901061486080513,224,170,0.5016308925821823,-0.104677844149824,1
0.7931103544962949,224,169,-1.1549839184793742,0.23885252431538104,1
0.7961145603845384,224,170,0.5016308925821823,-0.104677844149824,1
0.7991187662727819,223,170,-0.15513489777612482,-1.6045309423326526,1
0.8021229721610255,223,171,1.5014799132854315,-1.9480613107978577,1
0.805127178049269,223,171,1.5014799132854315,-1.9480613107978577,1
0.8081313839375125,224,170,0.5016308925821823,-0.104677844149824,1
0.8111355898257561,224,170,0.5016308925821823,-0.104677844149824,1
0.8141397957139996,225,170,1.1583966829404893,1.395175254033005,1
0.8171440016022432,224,169,-1.1549839184793742,0.23885252431538104,1
0.8201482074904867,224,169,-1.1549839184793742,0.23885252431538104,1
0.8231524133787302,223,170,-0.15513489777612482,-1.6045309423326526,1
0.8261566192669738,225,170,1.1583966829404893,1.395175254033005,1
0.8291608251552173,224,170,0.5016308925821823,-0.104677844149824,1
0.8321650310434608,224,169,-1.1549839184793742,0.23885252431538104,1
0.8351692369317044,225,170,1.1583966829404893,1.395175254033005,1
0.838173442819948,224,170,0.5016308925821823,-0.104677844149824,1
0.8411776487081914,224,169,-1.1549839184793742,0.23885252431538104,1
0.844181854596435,223,171,1.5014799132854315,-1.9480613107978577,1
0.8471860604846786,225,170,1.1583966829404893,1.395175254033005,1
0.8501902663729222,224,170,0.5016308925821823,-0.104677844149824,1
0.8531944722611656,224,169,-1.1549839184793742,0.23885252431538104,1
0.8561986781494092,224,170,0.5016308925821823,-0.104677844149824,1
0.8592028840376528,224,169,-1.1549839184793742,0.23885252431538104,1
0.8622070899258962,223,170,-0.15513489777612482,-1.6045309423326526,1
0.8652112958141398,223,171,1.5014799132854315,-1.9480613107978577,1
0.8682155017023834,225,170,1.1583966829404893,1.395175254033005,1
0.871219707590627,224,169,-1.1549839184793742,0.23885252431538104,1
0.8742239134788704,224,170,0.5016308925821823,-0.104677844149824,1
0.877228119367114,224,170,0.5016308925821823,-0.104677844149824,1
0.8802323252553576,224,169,-1.1549839184793742,0.23885252431538104,1
0.883236531143601,223,170,-0.15513489777612482,-1.6045309423326526,1
0.8862407370318446,223,171,1.5014799132854315,-1.9480613107978577,1
0.8892449429200882,224,170,0.5016308925821823,-0.104677844149824,1
0.8922491488083317,223,171,1.5014799132854315,-1.9480613107978577,1
0.8952533546965752,225,171,2.815011494002046,1.0516448855677996,1
0.8982575605848188,224,170,0.5016308925821823,-0.104677844149824,1
0.9012617664730623,224,169,-1.1549839184793742,0.23885252431538104,1
0.9042659723613059,223,171,1.5014799132854315,-1.9480613107978577,1
0.9072701782495494,224,171,2.158245703643739,-0.4482082126150291,1
0.9102743841377929,224,170,0.5016308925821823,-0.104677844149824,1
0.9132785900260365,225,170,1.1583966829404893,1.395175254033005,1
0.91628279591428,225,169,-0.49821812812106714,1.7387056224982098,1
0.9192870018025235,226,170,1.8151624732987963,2.8950283522158333,1
0.9222912076907671,225,169,-0.49821812812106714,1.7387056224982098,1
0.9252954135790107,224,169,-1.1549839184793742,0.23885252431538104,1
0.9282996194672541,224,169,-1.1549839184793742,0.23885252431538104,1
0.9313038253554977,224,169,-1.1549839184793742,0.23885252431538104,1
0.9343080312437413,225,170,1.1583966829404893,1.395175254033005,1
0.9373122371319847,224,169,-1.1549839184793742,0.23885252431538104,1
0.9403164430202283,224,170,0.5016308925821823,-0.104677844149824,1
0.9433206489084719,224,169,-1.1549839184793742,0.23885252431538104,1
0.9463248547967155,224,169,-1.1549839184793742,0.23885252431538104,1
0.9493290606849589,223,170,-0.15513489777612482,-1.6045309423326526,1
0.9523332665732025,225,170,1.1583966829404893,1.395175254033005,1
0.9553374724614461,224,170,0.5016308925821823,-0.104677844149824,1
0.9583416783496896,224,170,0.5016308925821823,-0.104677844149824,1
0.9613458842379331,224,169,-1.1549839184793742,0.23885252431538104,1
0.9643500901261767,225,170,1.1583966829404893,1.395175254033005,1
0.9673542960144202,224,169,-1.1549839184793742,0.23885252431538104,1
0.9703585019026637,224,169,-1.1549839184793742,0.23885252431538104,1
0.9733627077909073,225,170,1.1583966829404893,1.395175254033005,1
0.9763669136791508,224,169,-1.1549839184793742,0.23885252431538104,1
0.9793711195673944,224,169,-1.1549839184793742,0.23885252431538104,1
0.9823753254556379,225,170,1.1583966829404893,1.395175254033005,1
0.9853795313438815,224,169,-1.1549839184793742,0.23885252431538104,1
0.988383737232125,224,169,-1.1549839184793742,0.23885252431538104,1
0.9913879431203685,224,169,-1.1549839184793742,0.23885252431538104,1
0.9943921490086121,224,170,0.5016308925821823,-0.104677844149824,1
0.9973963548968556,224,170,0.5016308925821823,-0.104677844149824,1
1.0004005607850992,225,170,1.1583966829404893,1.395175254033005,1
1.0034047666733428,224,170,0.5016308925821823,-0.104677844149824,1
1.0064089725615863,224,169,-1.1549839184793742,0.23885252431538104,1
1.0094131784498297,224,170,0.5016308925821823,-0.104677844149824,1
1.0124173843380733,223,170,-0.15513489777612482,-1.6045309423326526,1
1.0154215902263168,224,170,0.5016308925821823,-0.104677844149824,1
1.0184257961145604,224,170,0.5016308925821823,-0.104677844149824,1
1.021430002002804,224,170,0.5016308925821823,-0.104677844149824,1
1.0244342078910476,224,169,-1.1549839184793742,0.23885252431538104,1
1.0274384137792911,225,170,1.1583966829404893,1.395175254033005,1
1.0304426196675345,224,169,-1.1549839184793742,0.23885252431538104,1
1.033446825555778,224,170,0.5016308925821823,-0.104677844149824,1
1.0364510314440216,224,169,-1.1549839184793742,0.23885252431538104,1
1.0394552373322652,225,170,1.1583966829404893,1.395175254033005,1
1.0424594432205088,225,170,1.1583966829404893,1.395175254033005,1
1.0454636491087523,225,169,-0.49821812812106714,1.7387056224982098,1
1.048467854996996,224,169,-1.1549839184793742,0.23885252431538104,1
1.0514720608852393,224,169,-1.1549839184793742,0.23885252431538104,1
1.0544762667734828,223,170,-0.15513489777612482,-1.6045309423326526,1
1.0574804726617264,223,171,1.5014799132854315,-1.9480613107978577,1
1.06048467854997,225,170,1.1583966829404893,1.395175254033005,1
1.0634888844382135,225,170,1.1583966829404893,1.395175254033005,1
1.0664930903264571,225,170,1.1583966829404893,1.395175254033005,1
1.0694972962147007,224,169,-1.1549839184793742,0.23885252431538104,1
1.072501502102944,224,169,-1.1549839184793742,0.23885252431538104,1
1.0755057079911876,224,169,-1.1549839184793742,0.23885252431538104,1
1.0785099138794312,224,169,-1.1549839184793742,0.23885252431538104,1
1.0815141197676748,224,169,-1.1549839184793742,0.23885252431538104,1
1.0845183256559183,225,170,1.1583966829404893,1.395175254033005,1
1.087522531544162,224,169,-1.1549839184793742,0.23885252431538104,1
1.0905267374324055,224,169,-1.1549839184793742,0.23885252431538104,1
1.093530943320649,223,170,-0.15513489777612482,-1.6045309423326526,1
1.0965351492088924,225,170,1.1583966829404893,1.395175254033005,1
1.099539355097136,224,169,-1.1549839184793742,0.23885252431538104,1
1.1025435609853795,225,170,1.1583966829404893,1.395175254033005,1
1.105547766873623,225,170,1.1583966829404893,1.395175254033005,1
1.1085519727618667,225,169,-0.49821812812106714,1.7387056224982098,1
1.1115561786501102,224,169,-1.1549839184793742,0.23885252431538104,1
1.1145603845383538,224,169,-1.1549839184793742,0.23885252431538104,1
1.1175645904265972,224,169,-1.1549839184793742,0.23885252431538104,1
1.1205687963148407,224,169,-1.1549839184793742,0.23885252431538104,1
1.1235730022030843,225,170,1.1583966829404893,1.395175254033005,1
1.1265772080913279,224,169,-1.1549839184793742,0.23885252431538104,1
1.1295814139795715,224,170,0.5016308925821823,-0.104677844149824,1
1.132585619867815,224,169,-1.1549839184793742,0.23885252431538104,1
1.1355898257560586,223,170,-0.15513489777612482,-1.6045309423326526,1
1.138594031644302,223,171,1.5014799132854315,-1.9480613107978577,1
1.1415982375325455,225,170,1.1583966829404893,1.395175254033005,1
1.144602443420789,225,170,1.1583966829404893,1.395175254033005,1
1.1476066493090327,226,170,1.8151624732987963,2.8950283522158333,1
1.1506108551972762,225,170,1.1583966829404893,1.395175254033005,1
1.1536150610855198,224,169,-1.1549839184793742,0.23885252431538104,1
1.1566192669737634,224,169,-1.1549839184793742,0.23885252431538104,1
1.1596234728620067,224,170,0.5016308925821823,-0.104677844149824,1
1.1626276787502503,224,169,-1.1549839184793742,0.23885252431538104,1
1.1656318846384939,225,169,-0.49821812812106714,1.7387056224982098,1
1.1686360905267374,224,169,-1.1549839184793742,0.23885252431538104,1
1.171640296414981,224,170,0.5016308925821823,-0.104677844149824,1
1.1746445023032246,224,169,-1.1549839184793742,0.23885252431538104,1
1.1776487081914682,224,169,-1.1549839184793742,0.23885252431538104,1
1.1806529140797117,223,171,1.5014799132854315,-1.9480613107978577,1
1.183657119967955,224,170,0.5016308925821823,-0.104677844149824,1
1.1866613258561987,224,169,-1.1549839184793742,0.23885252431538104,1
1.1896655317444422,224,170,0.5016308925821823,-0.104677844149824,1
1.1926697376326858,224,170,0.5016308925821823,-0.104677844149824,1
1.1956739435209294,223,170,-0.15513489777612482,-1.6045309423326526,1
1.198678149409173,223,171,1.5014799132854315,-1.9480613107978577,1
1.2016823552974165,223,171,1.5014799132854315,-1.9480613107978577,1
1.2046865611856599,225,170,1.1583966829404893,1.395175254033005,1
1.2076907670739034,224,169,-1.1549839184793742,0.23885252431538104,1
1.210694972962147,224,170,0.5016308925821823,-0.104677844149824,1
1.2136991788503906,224,169,-1.1549839184793742,0.23885252431538104,1
1.2167033847386342,224,169,-1.1549839184793742,0.23885252431538104,1
1.2197075906268777,223,170,-0.15513489777612482,-1.6045309423326526,1
1.2227117965151213,223,170,-0.15513489777612482,-1.6045309423326526,1
1.2257160024033646,225,170,1.1583966829404893,1.395175254033005,1
1.2287202082916082,224,170,0.5016308925821823,-0.104677844149824,1
1.2317244141798518,224,169,-1.1549839184793742,0.23885252431538104,1
1.2347286200680954,224,169,-1.1549839184793742,0.23885252431538104,1
1.237732825956339,223,170,-0.15513489777612482,-1.6045309423326526,1
1.2407370318445825,224,169,-1.1549839184793742,0.23885252431538104,1
1.243741237732826,223,171,1.5014799132854315,-1.9480613107978577,1
1.2467454436210694,224,170,0.5016308925821823,-0.104677844149824,1
1.249749649509313,224,170,0.5016308925821823,-0.104677844149824,1
1.2527538553975566,225,170,1.1583966829404893,1.395175254033005,1
1.2557580612858001,225,169,-0.49821812812106714,1.7387056224982098,1
1.2587622671740437,224,169,-1.1549839184793742,0.23885252431538104,1
1.2617664730622873,223,170,-0.15513489777612482,-1.6045309423326526,1
1.2647706789505309,225,170,1.1583966829404893,1.395175254033005,1
1.2677748848387742,224,170,0.5016308925821823,-0.104677844149824,1
1.2707790907270178,224,169,-1.1549839184793742,0.23885252431538104,1
1.2737832966152614,224,170,0.5016308925821823,-0.104677844149824,1
1.276787502503505,224,169,-1.1549839184793742,0.23885252431538104,1
1.2797917083917485,223,170,-0.15513489777612482,-1.6045309423326526,1
1.282795914279992,223,171,1.5014799132854315,-1.9480613107978577,1
1.2858001201682356,225,170,1.1583966829404893,1.395175254033005,1
1.2888043260564792,224,170,0.5016308925821823,-0.104677844149824,1
1.2918085319447226,224,170,0.5016308925821823,-0.104677844149824,1
1.2948127378329661,224,170,0.5016308925821823,-0.104677844149824,1
1.2978169437212097,224,170,0.5016308925821823,-0.104677844149824,1
1.3008211496094533,223,171,1.5014799132854315,-1.9480613107978577,1
1.3038253554976968,224,170,0.5016308925821823,-0.104677844149824,1
1.3068295613859404,224,170,0.5016308925821823,-0.104677844149824,1
1.309833767274184,224,169,-1.1549839184793742,0.23885252431538104,1
1.3128379731624273,225,170,1.1583966829404893,1.395175254033005,1
1.315842179050671,225,170,1.1583966829404893,1.395175254033005,1
1.3188463849389145,224,169,-1.1549839184793742,0.23885252431538104,1
1.321850590827158,224,169,-1.1549839184793742,0.23885252431538104,1
1.3248547967154016,224,169,-1.1549839184793742,0.23885252431538104,1
1.3278590026036452,224,170,0.5016308925821823,-0.104677844149824,1
1.3308632084918888,224,169,-1.1549839184793742,0.23885252431538104,1
1.3338674143801321,225,170,1.1583966829404893,1.395175254033005,1
1.3368716202683757,224,170,0.5016308925821823,-0.104677844149824,1
1.3398758261566193,224,169,-1.1549839184793742,0.23885252431538104,1
1.3428800320448628,224,169,-1.1549839184793742,0.23885252431538104,1
1.3458842379331064,223,170,-0.15513489777612482,-1.6045309423326526,1
1.34888844382135,223,171,1.5014799132854315,-1.9480613107978577,1
1.3518926497095936,224,170,0.5016308925821823,-0.104677844149824,1
1.354896855597837,224,170,0.5016308925821823,-0.104677844149824,1
1.3579010614860805,224,170,0.5016308925821823,-0.104677844149824,1
1.360905267374324,224,169,-1.1549839184793742,0.23885252431538104,1
1.3639094732625676,223,170,-0.15513489777612482,-1.6045309423326526,1
1.3669136791508112,224,170,0.5016308925821823,-0.104677844149824,1
1.3699178850390548,224,169,-1.1549839184793742,0.23885252431538104,1
1.3729220909272983,225,170,1.1583966829404893,1.395175254033005,1
1.3759262968155417,224,170,0.5016308925821823,-0.104677844149824,1
1.3789305027037853,225,170,1.1583966829404893,1.395175254033005,1
1.3819347085920288,224,169,-1.1549839184793742,0.23885252431538104,1
1.3849389144802724,224,169,-1.1549839184793742,0.23885252431538104,1
1.387943120368516,224,169,-1.1549839184793742,0.23885252431538104,1
1.3909473262567595,224,169,-1.1549839184793742,0.23885252431538104,1
1.3939515321450031,224,170,0.5016308925821823,-0.104677844149824,1
1.3969557380332467,225,170,1.1583966829404893,1.395175254033005,1
1.39995994392149,224,169,-1.1549839184793742,0.23885252431538104,1
1.4029641498097336,225,170,1.1583966829404893,1.395175254033005,1
1.4059683556979772,224,169,-1.1549839184793742,0.23885252431538104,1
1.4089725615862208,224,169,-1.1549839184793742,0.23885252431538104,1
1.4119767674744643,224,170,0.5016308925821823,-0.104677844149824,1
1.414980973362708,224,169,-1.1549839184793742,0.23885252431538104,1
1.4179851792509515,224,169,-1.1549839184793742,0.23885252431538104,1
1.4209893851391948,224,169,-1.1549839184793742,0.23885252431538104,1
1.4239935910274384,224,169,-1.1549839184793742,0.23885252431538104,1
1.426997796915682,223,170,-0.15513489777612482,-1.6045309423326526,1
1.4300020028039255,224,170,0.5016308925821823,-0.104677844149824,1
1.433006208692169,224,169,-1.1549839184793742,0.23885252431538104,1
1.4360104145804127,225,170,1.1583966829404893,1.395175254033005,1
1.4390146204686562,224,170,0.5016308925821823,-0.104677844149824,1
1.4420188263568996,224,170,0.5016308925821823,-0.104677844149824,1
1.4450230322451432,224,169,-1.1549839184793742,0.23885252431538104,1
1.4480272381333867,224,169,-1.1549839184793742,0.23885252431538104,1
1.4510314440216303,223,171,1.5014799132854315,-1.9480613107978577,1
1.4540356499098739,224,170,0.5016308925821823,-0.104677844149824,1
1.4570398557981175,224,169,-1.1549839184793742,0.23885252431538104,1
1.460044061686361,224,169,-1.1549839184793742,0.23885252431538104,1
1.4630482675746044,224,170,0.5016308925821823,-0.104677844149824,1
1.466052473462848,224,169,-1.1549839184793742,0.23885252431538104,1
1.4690566793510915,223,170,-0.15513489777612482,-1.6045309423326526,1
1.472060885239335,224,170,0.5016308925821823,-0.104677844149824,1
1.4750650911275787,224,169,-1.1549839184793742,0.23885252431538104,1
1.4780692970158222,224,169,-1.1549839184793742,0.23885252431538104,1
1.4810735029040658,225,170,1.1583966829404893,1.395175254033005,1
1.4840777087923092,225,169,-0.49821812812106714,1.7387056224982098,1
1.4870819146805527,224,169,-1.1549839184793742,0.23885252431538104,1
1.4900861205687963,224,169,-1.1549839184793742,0.23885252431538104,1
1.4930903264570399,223,170,-0.15513489777612482,-1.6045309423326526,1
1.4960945323452834,224,170,0.5016308925821823,-0.104677844149824,1
1.499098738233527,224,170,0.5016308925821823,-0.104677844149824,1
1.5021029441217706,224,170,0.5016308925821823,-0.104677844149824,1
1.5051071500100142,224,169,-1.1549839184793742,0.23885252431538104,1
1.5081113558982575,224,170,0.5016308925821823,-0.104677844149824,1
1.511115561786501,223,170,-0.15513489777612482,-1.6045309423326526,1
1.5141197676747447,223,170,-0.15513489777612482,-1.6045309423326526,1
1.5171239735629882,224,170,0.5016308925821823,-0.104677844149824,1
1.5201281794512318,224,170,0.5016308925821823,-0.104677844149824,1
1.5231323853394754,224,170,0.5016308925821823,-0.104677844149824,1
1.526136591227719,224,169,-1.1549839184793742,0.23885252431538104,1
1.5291407971159623,223,171,1.5014799132854315,-1.9480613107978577,1
1.5321450030042059,224,170,0.5016308925821823,-0.104677844149824,1
1.5351492088924494,224,169,-1.1549839184793742,0.23885252431538104,1
1.538153414780693,224,169,-1.1549839184793742,0.23885252431538104,1
1.5411576206689366,224,169,-1.1549839184793742,0.23885252431538104,1
1.5441618265571802,225,170,1.1583966829404893,1.395175254033005,1
1.5471660324454237,224,170,0.5016308925821823,-0.104677844149824,1
1.550170238333667,224,169,-1.1549839184793742,0.23885252431538104,1
1.5531744442219106,223,170,-0.15513489777612482,-1.6045309423326526,1
1.5561786501101542,223,171,1.5014799132854315,-1.9480613107978577,1
1.5591828559983978,223,171,1.5014799132854315,-1.9480613107978577,1
1.5621870618866414,225,170,1.1583966829404893,1.395175254033005,1
1.565191267774885,225,170,1.1583966829404893,1.395175254033005,1
1.5681954736631285,225,169,-0.49821812812106714,1.7387056224982098,1
1.5711996795513719,224,169,-1.1549839184793742,0.23885252431538104,1
1.5742038854396154,224,169,-1.1549839184793742,0.23885252431538104,1
1.577208091327859,223,170,-0.15513489777612482,-1.6045309423326526,1
1.5802122972161026,225,170,1.1583966829404893,1.395175254033005,1
1.5832165031043461,224,170,0.5016308925821823,-0.104677844149824,1
1.5862207089925897,224,170,0.5016308925821823,-0.104677844149824,1
1.5892249148808333,224,169,-1.1549839184793742,0.23885252431538104,1
1.5922291207690769,224,170,0.5016308925821823,-0.104677844149824,1
1.5952333266573202,223,170,-0.15513489777612482,-1.6045309423326526,1
1.5982375325455638,223,171,1.5014799132854315,-1.9480613107978577,1
1.6012417384338073,224,170,0.5016308925821823,-0.104677844149824,1
1.604245944322051,224,170,0.5016308925821823,-0.104677844149824,1
1.6072501502102945,224,169,-1.1549839184793742,0.23885252431538104,1
1.610254356098538,225,170,1.1583966829404893,1.395175254033005,1
1.6132585619867816,224,169,-1.1549839184793742,0.23885252431538104,1
1.616262767875025,224,169,-1.1549839184793742,0.23885252431538104,1
1.6192669737632686,223,170,-0.15513489777612482,-1.6045309423326526,1
1.6222711796515121,225,170,1.1583966829404893,1.395175254033005,1
1.6252753855397557,224,170,0.5016308925821823,-0.104677844149824,1
1.6282795914279993,224,170,0.5016308925821823,-0.104677844149824,1
1.6312837973162428,224,170,0.5016308925821823,-0.104677844149824,1
1.6342880032044864,224,170,0.5016308925821823,-0.104677844149824,1
1.6372922090927298,223,169,-1.8117497088376815,-1.2610005738674475,1
1.6402964149809733,223,170,-0.15513489777612482,-1.6045309423326526,1
1.643300620869217,224,170,0.5016308925821823,-0.104677844149824,1
1.6463048267574605,224,169,-1.1549839184793742,0.23885252431538104,1
1.649309032645704,224,170,0.5016308925821823,-0.104677844149824,1
1.6523132385339476,223,171,1.5014799132854315,-1.9480613107978577,1
1.6553174444221912,224,170,0.5016308925821823,-0.104677844149824,1
1.6583216503104345,223,170,-0.15513489777612482,-1.6045309423326526,1
1.6613258561986781,224,170,0.5016308925821823,-0.104677844149824,1
1.6643300620869217,224,169,-1.1549839184793742,0.23885252431538104,1
1.6673342679751653,225,170,1.1583966829404893,1.395175254033005,1
1.6703384738634088,224,170,0.5016308925821823,-0.104677844149824,1
1.6733426797516524,224,170,0.5016308925821823,-0.104677844149824,1
1.676346885639896,224,169,-1.1549839184793742,0.23885252431538104,1
1.6793510915281393,223,170,-0.15513489777612482,-1.6045309423326526,1
1.682355297416383,225,170,1.1583966829404893,1.395175254033005,1
1.6853595033046265,224,169,-1.1549839184793742,0.23885252431538104,1
1.68836370919287,224,170,0.5016308925821823,-0.104677844149824,1
1.6913679150811136,224,169,-1.1549839184793742,0.23885252431538104,1
1.6943721209693572,225,170,1.1583966829404893,1.395175254033005,1
1.6973763268576008,224,169,-1.1549839184793742,0.23885252431538104,1
1.7003805327458443,224,169,-1.1549839184793742,0.23885252431538104,1
1.7033847386340877,223,171,1.5014799132854315,-1.9480613107978577,1
1.7063889445223313,223,171,1.5014799132854315,-1.9480613107978577,1
1.7093931504105748,225,170,1.1583966829404893,1.395175254033005,1
1.7123973562988184,225,170,1.1583966829404893,1.395175254033005,1
1.715401562187062,224,170,0.5016308925821823,-0.104677844149824,1
1.7184057680753055,224,169,-1.1549839184793742,0.23885252431538104,1
1.7214099739635491,223,171,1.5014799132854315,-1.9480613107978577,1
1.7244141798517925,224,169,-1.1549839184793742,0.23885252431538104,1
1.727418385740036,225,170,1.1583966829404893,1.395175254033005,1
1.7304225916282796,224,170,0.5016308925821823,-0.104677844149824,1
1.7334267975165232,225,170,1.1583966829404893,1.395175254033005,1
1.7364310034047667,224,169,-1.1549839184793742,0.23885252431538104,1
1.7394352092930103,224,169,-1.1549839184793742,0.23885252431538104,1
1.742439415181254,224,169,-1.1549839184793742,0.23885252431538104,1
1.7454436210694972,223,170,-0.15513489777612482,-1.6045309423326526,1
1.7484478269577408,224,170,0.5016308925821823,-0.104677844149824,1
1.7514520328459844,224,169,-1.1549839184793742,0.23885252431538104,1
1.754456238734228,224,170,0.5016308925821823,-0.104677844149824,1
1.7574604446224715,224,169,-1.1549839184793742,0.23885252431538104,1
1.760464650510715,223,169,-1.8117497088376815,-1.2610005738674475,1
1.7634688563989587,223,170,-0.15513489777612482,-1.6045309423326526,1
1.766473062287202,223,170,-0.15513489777612482,-1.6045309423326526,1
1.7694772681754456,224,170,0.5016308925821823,-0.104677844149824,1
1.7724814740636892,224,170,0.5016308925821823,-0.104677844149824,1
1.7754856799519327,224,169,-1.1549839184793742,0.23885252431538104,1
1.7784898858401763,224,169,-1.1549839184793742,0.23885252431538104,1
1.7814940917284199,224,169,-1.1549839184793742,0.23885252431538104,1
1.7844982976166635,223,171,1.5014799132854315,-1.9480613107978577,1
1.7875025035049068,223,170,-0.15513489777612482,-1.6045309423326526,1
1.7905067093931504,224,171,2.158245703643739,-0.4482082126150291,1
1.793510915281394,224,169,-1.1549839184793742,0.23885252431538104,1
1.7965151211696375,224,170,0.5016308925821823,-0.104677844149824,1
1.799519327057881,224,170,0.5016308925821823,-0.104677844149824,1
1.8025235329461247,223,171,1.5014799132854315,-1.9480613107978577,1
1.8055277388343682,224,170,0.5016308925821823,-0.104677844149824,1
1.8085319447226118,224,169,-1.1549839184793742,0.23885252431538104,1
1.8115361506108552,225,170,1.1583966829404893,1.395175254033005,1
1.8145403564990987,224,169,-1.1549839184793742,0.23885252431538104,1
1.8175445623873423,225,170,1.1583966829404893,1.395175254033005,1
1.8205487682755859,225,170,1.1583966829404893,1.395175254033005,1
1.8235529741638294,224,169,-1.1549839184793742,0.23885252431538104,1
1.826557180052073,224,169,-1.1549839184793742,0.23885252431538104,1
1.8295613859403166,223,171,1.5014799132854315,-1.9480613107978577,1
1.83256559182856,224,169,-1.1549839184793742,0.23885252431538104,1
1.8355697977168035,225,170,1.1583966829404893,1.395175254033005,1
1.838574003605047,225,169,-0.49821812812106714,1.7387056224982098,1
1.8415782094932907,225,169,-0.49821812812106714,1.7387056224982098,1
1.8445824153815342,224,169,-1.1549839184793742,0.23885252431538104,1
1.8475866212697778,224,169,-1.1549839184793742,0.23885252431538104,1
1.8505908271580214,224,169,-1.1549839184793742,0.23885252431538104,1
1.8535950330462647,225,170,1.1583966829404893,1.395175254033005,1
1.8565992389345083,224,170,0.5016308925821823,-0.104677844149824,1
1.8596034448227519,224,170,0.5016308925821823,-0.104677844149824,1
1.8626076507109954,224,169,-1.1549839184793742,0.23885252431538104,1
1.865611856599239,223,170,-0.15513489777612482,-1.6045309423326526,1
1.8686160624874826,224,170,0.5016308925821823,-0.104677844149824,1
1.8716202683757261,224,170,0.5016308925821823,-0.104677844149824,1
1.8746244742639695,225,170,1.1583966829404893,1.395175254033005,1
1.877628680152213,224,170,0.5016308925821823,-0.104677844149824,1
1.8806328860404566,224,170,0.5016308925821823,-0.104677844149824,1
1.8836370919287002,224,169,-1.1549839184793742,0.23885252431538104,1
1.8866412978169438,223,170,-0.15513489777612482,-1.6045309423326526,1
1.8896455037051874,224,170,0.5016308925821823,-0.104677844149824,1
1.892649709593431,223,170,-0.15513489777612482,-1.6045309423326526,1
1.8956539154816743,224,170,0.5016308925821823,-0.104677844149824,1
1.8986581213699179,224,169,-1.1549839184793742,0.23885252431538104,1
1.9016623272581614,224,170,0.5016308925821823,-0.104677844149824,1
1.904666533146405,224,170,0.5016308925821823,-0.104677844149824,1
1.9076707390346486,223,170,-0.15513489777612482,-1.6045309423326526,1
1.9106749449228921,223,170,-0.15513489777612482,-1.6045309423326526,1
1.9136791508111357,223,170,-0.15513489777612482,-1.6045309423326526,1
1.9166833566993793,224,170,0.5016308925821823,-0.104677844149824,1
1.9196875625876226,224,170,0.5016308925821823,-0.104677844149824,1
1.9226917684758662,224,170,0.5016308925821823,-0.104677844149824,1
1.9256959743641098,225,170,1.1583966829404893,1.395175254033005,1
1.9287001802523533,224,169,-1.1549839184793742,0.23885252431538104,1
1.931704386140597,224,170,0.5016308925821823,-0.104677844149824,1
1.9347085920288405,224,170,0.5016308925821823,-0.104677844149824,1
1.937712797917084,225,170,1.1583966829404893,1.395175254033005,1
1.9407170038053274,225,170,1.1583966829404893,1.395175254033005,1
1.943721209693571,225,170,1.1583966829404893,1.395175254033005,1
1.9467254155818146,224,169,-1.1549839184793742,0.23885252431538104,1
1.9497296214700581,224,169,-1.1549839184793742,0.23885252431538104,1
1.9527338273583017,223,170,-0.15513489777612482,-1.6045309423326526,1
1.9557380332465453,224,170,0.5016308925821823,-0.104677844149824,1
1.9587422391347888,224,170,0.5016308925821823,-0.104677844149824,1
1.9617464450230322,224,170,0.5016308925821823,-0.104677844149824,1
1.9647506509112758,224,169,-1.1549839184793742,0.23885252431538104,1
1.9677548567995193,224,169,-1.1549839184793742,0.23885252431538104,1
1.970759062687763,223,171,1.5014799132854315,-1.9480613107978577,1
1.9737632685760065,224,170,0.5016308925821823,-0.104677844149824,1
1.97676747446425,224,169,-1.1549839184793742,0.23885252431538104,1
1.9797716803524936,225,170,1.1583966829404893,1.395175254033005,1
1.982775886240737,224,170,0.5016308925821823,-0.104677844149824,1
1.9857800921289805,224,169,-1.1549839184793742,0.23885252431538104,1
1.9887842980172241,224,169,-1.1549839184793742,0.23885252431538104,1
1.9917885039054677,223,171,1.5014799132854315,-1.9480613107978577,1
1.9947927097937113,223,170,-0.15513489777612482,-1.6045309423326526,1
1.9977969156819548,223,171,1.5014799132854315,-1.9480613107978577,1
2.0008011215701984,224,170,0.5016308925821823,-0.104677844149824,1
2.003805327458442,225,170,1.1583966829404893,1.395175254033005,1
2.0068095333466855,225,170,1.1583966829404893,1.395175254033005,1
2.009813739234929,224,169,-1.1549839184793742,0.23885252431538104,1
2.0128179451231727,223,170,-0.15513489777612482,-1.6045309423326526,1
2.015822151011416,223,170,-0.15513489777612482,-1.6045309423326526,1
2.0188263568996594,224,170,0.5016308925821823,-0.104677844149824,1
2.021830562787903,224,169,-1.1549839184793742,0.23885252431538104,1
2.0248347686761465,225,170,1.1583966829404893,1.395175254033005,1
2.02783897456439,224,170,0.5016308925821823,-0.104677844149824,1
2.0308431804526337,224,169,-1.1549839184793742,0.23885252431538104,1
2.0338473863408773,224,169,-1.1549839184793742,0.23885252431538104,1
2.036851592229121,223,170,-0.15513489777612482,-1.6045309423326526,1
2.0398557981173644,224,170,0.5016308925821823,-0.104677844149824,1
2.042860004005608,224,169,-1.1549839184793742,0.23885252431538104,1
2.0458642098938515,224,170,0.5016308925821823,-0.104677844149824,1
2.048868415782095,225,170,1.1583966829404893,1.395175254033005,1
2.0518726216703387,224,169,-1.1549839184793742,0.23885252431538104,1
2.0548768275585823,224,169,-1.1549839184793742,0.23885252431538104,1
2.057881033446826,224,169,-1.1549839184793742,0.23885252431538104,1
2.060885239335069,223,171,1.5014799132854315,-1.9480613107978577,1
2.0638894452233125,225,170,1.1583966829404893,1.395175254033005,1
2.066893651111556,224,170,0.5016308925821823,-0.104677844149824,1
2.0698978569997997,224,169,-1.1549839184793742,0.23885252431538104,1
2.0729020628880432,224,169,-1.1549839184793742,0.23885252431538104,1
2.075906268776287,223,170,-0.15513489777612482,-1.6045309423326526,1
2.0789104746645304,223,171,1.5014799132854315,-1.9480613107978577,1
2.081914680552774,223,170,-0.15513489777612482,-1.6045309423326526,1
2.0849188864410175,225,170,1.1583966829404893,1.395175254033005,1
2.087923092329261,225,170,1.1583966829404893,1.395175254033005,1
2.0909272982175047,224,169,-1.1549839184793742,0.23885252431538104,1
2.0939315041057482,224,169,-1.1549839184793742,0.23885252431538104,1
2.096935709993992,223,170,-0.15513489777612482,-1.6045309423326526,1
2.0999399158822354,223,171,1.5014799132854315,-1.9480613107978577,1
2.1029441217704785,224,170,0.5016308925821823,-0.104677844149824,1
2.105948327658722,224,169,-1.1549839184793742,0.23885252431538104,1
2.1089525335469657,224,170,0.5016308925821823,-0.104677844149824,1
2.1119567394352092,224,169,-1.1549839184793742,0.23885252431538104,1
2.114960945323453,223,170,-0.15513489777612482,-1.6045309423326526,1
2.1179651512116964,223,171,1.5014799132854315,-1.9480613107978577,1
2.12096935709994,224,170,0.5016308925821823,-0.104677844149824,1
2.1239735629881835,224,169,-1.1549839184793742,0.23885252431538104,1
2.126977768876427,225,170,1.1583966829404893,1.395175254033005,1
2.1299819747646707,226,170,1.8151624732987963,2.8950283522158333,1
2.1329861806529142,225,169,-0.49821812812106714,1.7387056224982098,1
2.135990386541158,224,169,-1.1549839184793742,0.23885252431538104,1
2.1389945924294014,224,169,-1.1549839184793742,0.23885252431538104,1
2.141998798317645,224,169,-1.1549839184793742,0.23885252431538104,1
2.145003004205888,223,171,1.5014799132854315,-1.9480613107978577,1
2.1480072100941316,225,170,1.1583966829404893,1.395175254033005,1
2.151011415982375,224,170,0.5016308925821823,-0.104677844149824,1
2.154015621870619,224,169,-1.1549839184793742,0.23885252431538104,1
2.1570198277588624,224,170,0.5016308925821823,-0.104677844149824,1
2.160024033647106,223,169,-1.8117497088376815,-1.2610005738674475,1
2.1630282395353495,224,170,0.5016308925821823,-0.104677844149824,1
2.166032445423593,224,170,0.5016308925821823,-0.104677844149824,1
2.1690366513118366,224,169,-1.1549839184793742,0.23885252431538104,1
2.17204085720008,225,170,1.1583966829404893,1.395175254033005,1
2.175045063088324,224,169,-1.1549839184793742,0.23885252431538104,1
2.1780492689765674,224,169,-1.1549839184793742,0.23885252431538104,1
2.181053474864811,224,169,-1.1549839184793742,0.23885252431538104,1
2.1840576807530545,223,170,-0.15513489777612482,-1.6045309423326526,1
2.187061886641298,224,170,0.5016308925821823,-0.104677844149824,1
2.190066092529541,224,169,-1.1549839184793742,0.23885252431538104,1
2.193070298417785,224,170,0.5016308925821823,-0.104677844149824,1
2.1960745043060284,224,169,-1.1549839184793742,0.23885252431538104,1
2.199078710194272,224,170,0.5016308925821823,-0.104677844149824,1
2.2020829160825155,223,170,-0.15513489777612482,-1.6045309423326526,1
2.205087121970759,223,171,1.5014799132854315,-1.9480613107978577,1
2.2080913278590026,224,170,0.5016308925821823,-0.104677844149824,1
2.211095533747246,224,170,0.5016308925821823,-0.104677844149824,1
2.21409973963549,224,170,0.5016308925821823,-0.104677844149824,1
2.2171039455237334,224,169,-1.1549839184793742,0.23885252431538104,1
2.220108151411977,223,171,1.5014799132854315,-1.9480613107978577,1
2.2231123573002205,223,171,1.5014799132854315,-1.9480613107978577,1
2.226116563188464,224,170,0.5016308925821823,-0.104677844149824,1
2.2291207690767076,224,169,-1.1549839184793742,0.23885252431538104,1
2.2321249749649508,224,170,0.5016308925821823,-0.104677844149824,1
2.2351291808531943,225,170,1.1583966829404893,1.395175254033005,1
2.238133386741438,224,170,0.5016308925821823,-0.104677844149824,1
2.2411375926296815,224,169,-1.1549839184793742,0.23885252431538104,1
2.244141798517925,223,170,-0.15513489777612482,-1.6045309423326526,1
2.2471460044061686,225,170,1.1583966829404893,1.395175254033005,1
2.250150210294412,224,169,-1.1549839184793742,0.23885252431538104,1
2.2531544161826558,225,170,1.1583966829404893,1.395175254033005,1
2.2561586220708993,225,170,1.1583966829404893,1.395175254033005,1
2.259162827959143,225,170,1.1583966829404893,1.395175254033005,1
2.2621670338473865,224,169,-1.1549839184793742,0.23885252431538104,1
2.26517123973563,224,169,-1.1549839184793742,0.23885252431538104,1
2.2681754456238736,223,171,1.5014799132854315,-1.9480613107978577,1
2.271179651512117,224,169,-1.1549839184793742,0.23885252431538104,1
2.2741838574003608,223,171,1.5014799132854315,-1.9480613107978577,1
2.277188063288604,225,170,1.1583966829404893,1.395175254033005,1
2.2801922691768475,224,170,0.5016308925821823,-0.104677844149824,1
2.283196475065091,224,169,-1.1549839184793742,0.23885252431538104,1
2.2862006809533346,223,171,1.5014799132854315,-1.9480613107978577,1
2.289204886841578,224,170,0.5016308925821823,-0.104677844149824,1
2.2922090927298218,224,169,-1.1549839184793742,0.23885252431538104,1
2.2952132986180653,225,170,1.1583966829404893,1.395175254033005,1
2.298217504506309,224,169,-1.1549839184793742,0.23885252431538104,1
2.3012217103945525,224,170,0.5016308925821823,-0.104677844149824,1
2.304225916282796,224,169,-1.1549839184793742,0.23885252431538104,1
2.3072301221710396,223,170,-0.15513489777612482,-1.6045309423326526,1
2.310234328059283,225,170,1.1583966829404893,1.395175254033005,1
2.3132385339475268,224,170,0.5016308925821823,-0.104677844149824,1
2.3162427398357703,224,169,-1.1549839184793742,0.23885252431538104,1
2.3192469457240135,225,170,1.1583966829404893,1.395175254033005,1
2.322251151612257,224,169,-1.1549839184793742,0.23885252431538104,1
2.3252553575005006,224,169,-1.1549839184793742,0.23885252431538104,1
2.328259563388744,223,170,-0.15513489777612482,-1.6045309423326526,1
2.3312637692769878,223,171,1.5014799132854315,-1.9480613107978577,1
2.3342679751652313,224,170,0.5016308925821823,-0.104677844149824,1
2.337272181053475,225,170,1.1583966829404893,1.395175254033005,1
2.3402763869417185,224,170,0.5016308925821823,-0.104677844149824,1
2.343280592829962,224,169,-1.1549839184793742,0.23885252431538104,1
2.3462847987182056,223,170,-0.15513489777612482,-1.6045309423326526,1
2.349289004606449,223,171,1.5014799132854315,-1.9480613107978577,1
2.3522932104946928,224,170,0.5016308925821823,-0.104677844149824,1
2.3552974163829363,224,169,-1.1549839184793742,0.23885252431538104,1
2.35830162227118,224,169,-1.1549839184793742,0.23885252431538104,1
2.3613058281594235,225,170,1.1583966829404893,1.395175254033005,1
2.3643100340476666,224,170,0.5016308925821823,-0.104677844149824,1
2.36731423993591,224,168,-2.811598729540931,0.5823828927805862,1
2.3703184458241537,224,169,-1.1549839184793742,0.23885252431538104,1
2.3733226517123973,223,171,1.5014799132854315,-1.9480613107978577,1
2.376326857600641,225,170,1.1583966829404893,1.395175254033005,1
2.3793310634888845,224,170,0.5016308925821823,-0.104677844149824,1
2.382335269377128,224,169,-1.1549839184793742,0.23885252431538104,1
2.3853394752653716,224,169,-1.1549839184793742,0.23885252431538104,1
2.388343681153615,224,169,-1.1549839184793742,0.23885252431538104,1
2.3913478870418587,223,170,-0.15513489777612482,-1.6045309423326526,1
2.3943520929301023,224,170,0.5016308925821823,-0.104677844149824,1
2.397356298818346,224,169,-1.1549839184793742,0.23885252431538104,1
2.4003605047065895,225,170,1.1583966829404893,1.395175254033005,1
2.403364710594833,224,170,0.5016308925821823,-0.104677844149824,1
2.406368916483076,224,169,-1.1549839184793742,0.23885252431538104,1
2.4093731223713197,224,169,-1.1549839184793742,0.23885252431538104,1
2.4123773282595633,223,170,-0.15513489777612482,-1.6045309423326526,1
2.415381534147807,224,170,0.5016308925821823,-0.104677844149824,1
2.4183857400360504,224,170,0.5016308925821823,-0.104677844149824,1
2.421389945924294,224,170,0.5016308925821823,-0.104677844149824,1
2.4243941518125376,224,170,0.5016308925821823,-0.104677844149824,1
2.427398357700781,224,169,-1.1549839184793742,0.23885252431538104,1
2.4304025635890247,224,169,-1.1549839184793742,0.23885252431538104,1
2.4334067694772683,223,170,-0.15513489777612482,-1.6045309423326526,1
2.436410975365512,223,171,1.5014799132854315,-1.9480613107978577,1
2.4394151812537554,225,170,1.1583966829404893,1.395175254033005,1
2.442419387141999,225,170,1.1583966829404893,1.395175254033005,1
2.4454235930302426,225,170,1.1583966829404893,1.395175254033005,1
2.4484277989184857,224,169,-1.1549839184793742,0.23885252431538104,1
2.4514320048067293,224,169,-1.1549839184793742,0.23885252431538104,1
2.454436210694973,223,170,-0.15513489777612482,-1.6045309423326526,1
2.4574404165832164,224,170,0.5016308925821823,-0.104677844149824,1
2.46044462247146,224,169,-1.1549839184793742,0.23885252431538104,1
2.4634488283597036,224,170,0.5016308925821823,-0.104677844149824,1
2.466453034247947,224,169,-1.1549839184793742,0.23885252431538104,1
2.4694572401361907,224,170,0.5016308925821823,-0.104677844149824,1
2.4724614460244343,223,171,1.5014799132854315,-1.9480613107978577,1
2.475465651912678,224,170,0.5016308925821823,-0.104677844149824,1
2.4784698578009214,224,169,-1.1549839184793742,0.23885252431538104,1
2.481474063689165,225,170,1.1583966829404893,1.395175254033005,1
2.4844782695774086,224,170,0.5016308925821823,-0.104677844149824,1
2.487482475465652,224,169,-1.1549839184793742,0.23885252431538104,1
2.4904866813538957,224,169,-1.1549839184793742,0.23885252431538104,1
2.493490887242139,223,171,1.5014799132854315,-1.9480613107978577,1
2.4964950931303824,224,170,0.5016308925821823,-0.104677844149824,1
2.499499299018626,224,169,-1.1549839184793742,0.23885252431538104,1
2.5025035049068696,225,170,1.1583966829404893,1.395175254033005,1
2.505507710795113,224,169,-1.1549839184793742,0.23885252431538104,1
2.5085119166833567,224,170,0.5016308925821823,-0.104677844149824,1
2.5115161225716003,224,169,-1.1549839184793742,0.23885252431538104,1
2.514520328459844,224,169,-1.1549839184793742,0.23885252431538104,1
2.5175245343480874,223,170,-0.15513489777612482,-1.6045309423326526,1
2.520528740236331,223,170,-0.15513489777612482,-1.6045309423326526,1
2.5235329461245746,225,170,1.1583966829404893,1.395175254033005,1
2.526537152012818,225,170,1.1583966829404893,1.395175254033005,1
2.5295413579010617,225,170,1.1583966829404893,1.395175254033005,1
2.5325455637893053,224,169,-1.1549839184793742,0.23885252431538104,1
2.5355497696775484,224,169,-1.1549839184793742,0.23885252431538104,1
2.538553975565792,223,170,-0.15513489777612482,-1.6045309423326526,1
2.5415581814540356,224,170,0.5016308925821823,-0.104677844149824,1
2.544562387342279,224,169,-1.1549839184793742,0.23885252431538104,1
2.5475665932305227,224,170,0.5016308925821823,-0.104677844149824,1
2.5505707991187663,224,169,-1.1549839184793742,0.23885252431538104,1
2.55357500500701,224,169,-1.1549839184793742,0.23885252431538104,1
2.5565792108952534,223,170,-0.15513489777612482,-1.6045309423326526,1
2.559583416783497,223,171,1.5014799132854315,-1.9480613107978577,1
2.5625876226717406,224,170,0.5016308925821823,-0.104677844149824,1
2.565591828559984,224,170,0.5016308925821823,-0.104677844149824,1
2.5685960344482277,224,170,0.5016308925821823,-0.104677844149824,1
2.5716002403364713,225,170,1.1583966829404893,1.395175254033005,1
2.574604446224715,224,169,-1.1549839184793742,0.23885252431538104,1
2.5776086521129584,224,170,0.5016308925821823,-0.104677844149824,1
2.5806128580012015,224,169,-1.1549839184793742,0.23885252431538104,1
2.583617063889445,225,170,1.1583966829404893,1.395175254033005,1
2.5866212697776887,224,170,0.5016308925821823,-0.104677844149824,1
2.5896254756659323,224,170,0.5016308925821823,-0.104677844149824,1
2.592629681554176,224,169,-1.1549839184793742,0.23885252431538104,1
2.5956338874424194,224,170,0.5016308925821823,-0.104677844149824,1
2.598638093330663,223,170,-0.15513489777612482,-1.6045309423326526,1
2.6016422992189066,224,170,0.5016308925821823,-0.104677844149824,1
2.60464650510715,224,170,0.5016308925821823,-0.104677844149824,1
2.6076507109953937,224,169,-1.1549839184793742,0.23885252431538104,1
2.6106549168836373,224,170,0.5016308925821823,-0.104677844149824,1
2.613659122771881,224,169,-1.1549839184793742,0.23885252431538104,1
2.6166633286601244,224,170,0.5016308925821823,-0.104677844149824,1
2.619667534548368,223,170,-0.15513489777612482,-1.6045309423326526,1
2.622671740436611,224,170,0.5016308925821823,-0.104677844149824,1
2.6256759463248547,224,169,-1.1549839184793742,0.23885252431538104,1
2.6286801522130983,225,170,1.1583966829404893,1.395175254033005,1
2.631684358101342,225,170,1.1583966829404893,1.395175254033005,1
2.6346885639895854,225,170,1.1583966829404893,1.395175254033005,1
2.637692769877829,224,169,-1.1549839184793742,0.23885252431538104,1
2.6406969757660725,224,169,-1.1549839184793742,0.23885252431538104,1
2.643701181654316,223,170,-0.15513489777612482,-1.6045309423326526,1
2.6467053875425597,225,170,1.1583966829404893,1.395175254033005,1
2.6497095934308033,224,169,-1.1549839184793742,0.23885252431538104,1
2.652713799319047,224,170,0.5016308925821823,-0.104677844149824,1
2.6557180052072904,224,170,0.5016308925821823,-0.104677844149824,1
2.658722211095534,224,170,0.5016308925821823,-0.104677844149824,1
2.6617264169837775,223,170,-0.15513489777612482,-1.6045309423326526,1
2.6647306228720207,223,171,1.5014799132854315,-1.9480613107978577,1
2.6677348287602642,224,170,0.5016308925821823,-0.104677844149824,1
2.670739034648508,224,170,0.5016308925821823,-0.104677844149824,1
2.6737432405367514,224,170,0.5016308925821823,-0.104677844149824,1
2.676747446424995,224,169,-1.1549839184793742,0.23885252431538104,1
2.6797516523132385,223,170,-0.15513489777612482,-1.6045309423326526,1
2.682755858201482,223,171,1.5014799132854315,-1.9480613107978577,1
2.6857600640897257,223,171,1.5014799132854315,-1.9480613107978577,1
2.6887642699779692,223,171,1.5014799132854315,-1.9480613107978577,1
2.691768475866213,225,170,1.1583966829404893,1.395175254033005,1
2.6947726817544564,225,170,1.1583966829404893,1.395175254033005,1
2.6977768876427,225,170,1.1583966829404893,1.395175254033005,1
2.7007810935309435,224,169,-1.1549839184793742,0.23885252431538104,1
2.703785299419187,224,169,-1.1549839184793742,0.23885252431538104,1
2.7067895053074307,223,170,-0.15513489777612482,-1.6045309423326526,1
2.709793711195674,225,170,1.1583966829404893,1.395175254033005,1
2.7127979170839174,224,169,-1.1549839184793742,0.23885252431538104,1
2.715802122972161,225,170,1.1583966829404893,1.395175254033005,1
2.7188063288604045,224,169,-1.1549839184793742,0.23885252431538104,1
2.721810534748648,224,169,-1.1549839184793742,0.23885252431538104,1
2.7248147406368917,224,169,-1.1549839184793742,0.23885252431538104,1
2.7278189465251352,225,169,-0.49821812812106714,1.7387056224982098,1
2.730823152413379,224,169,-1.1549839184793742,0.23885252431538104,1
2.7338273583016224,225,170,1.1583966829404893,1.395175254033005,1
2.736831564189866,224,170,0.5016308925821823,-0.104677844149824,1
2.7398357700781095,224,170,0.5016308925821823,-0.104677844149824,1
2.742839975966353,224,169,-1.1549839184793742,0.23885252431538104,1
2.7458441818545967,224,169,-1.1549839184793742,0.23885252431538104,1
2.7488483877428402,223,170,-0.15513489777612482,-1.6045309423326526,1
2.7518525936310834,224,170,0.5016308925821823,-0.104677844149824,1
2.754856799519327,224,170,0.5016308925821823,-0.104677844149824,1
2.7578610054075705,224,170,0.5016308925821823,-0.104677844149824,1
2.760865211295814,224,169,-1.1549839184793742,0.23885252431538104,1
2.7638694171840577,224,169,-1.1549839184793742,0.23885252431538104,1
2.7668736230723012,223,170,-0.15513489777612482,-1.6045309423326526,1
2.769877828960545,224,170,0.5016308925821823,-0.104677844149824,1
2.7728820348487884,224,170,0.5016308925821823,-0.104677844149824,1
2.775886240737032,225,170,1.1583966829404893,1.395175254033005,1
2.7788904466252755,224,170,0.5016308925821823,-0.104677844149824,1
2.781894652513519,224,170,0.5016308925821823,-0.104677844149824,1
2.7848988584017627,225,170,1.1583966829404893,1.395175254033005,1
2.7879030642900062,224,169,-1.1549839184793742,0.23885252431538104,1
2.79090727017825,224,169,-1.1549839184793742,0.23885252431538104,1
2.7939114760664934,224,170,0.5016308925821823,-0.104677844149824,1
2.7969156819547365,225,170,1.1583966829404893,1.395175254033005,1
2.79991988784298,225,170,1.1583966829404893,1.395175254033005,1
2.8029240937312236,224,169,-1.1549839184793742,0.23885252431538104,1
2.805928299619467,224,169,-1.1549839184793742,0.23885252431538104,1
2.808932505507711,224,169,-1.1549839184793742,0.23885252431538104,1
2.8119367113959544,223,171,1.5014799132854315,-1.9480613107978577,1
2.814940917284198,225,170,1.1583966829404893,1.395175254033005,1
2.8179451231724415,224,170,0.5016308925821823,-0.104677844149824,1
2.820949329060685,224,170,0.5016308925821823,-0.104677844149824,1
2.8239535349489286,224,169,-1.1549839184793742,0.23885252431538104,1
2.826957740837172,224,169,-1.1549839184793742,0.23885252431538104,1
2.829961946725416,223,170,-0.15513489777612482,-1.6045309423326526,1
2.8329661526136594,224,170,0.5016308925821823,-0.104677844149824,1
2.835970358501903,224,169,-1.1549839184793742,0.23885252431538104,1
2.838974564390146,225,170,1.1583966829404893,1.395175254033005,1
2.8419787702783896,224,170,0.5016308925821823,-0.104677844149824,1
2.844982976166633,224,169,-1.1549839184793742,0.23885252431538104,1
2.8479871820548768,224,169,-1.1549839184793742,0.23885252431538104,1
2.8509913879431203,223,170,-0.15513489777612482,-1.6045309423326526,1
2.853995593831364,224,170,0.5016308925821823,-0.104677844149824,1
2.8569997997196075,224,169,-1.1549839184793742,0.23885252431538104,1
2.860004005607851,224,169,-1.1549839184793742,0.23885252431538104,1
2.8630082114960946,225,170,1.1583966829404893,1.395175254033005,1
2.866012417384338,224,169,-1.1549839184793742,0.23885252431538104,1
2.869016623272582,224,169,-1.1549839184793742,0.23885252431538104,1
2.8720208291608254,224,169,-1.1549839184793742,0.23885252431538104,1
2.875025035049069,223,170,-0.15513489777612482,-1.6045309423326526,1
2.8780292409373125,224,170,0.5016308925821823,-0.104677844149824,1
2.881033446825556,223,170,-0.15513489777612482,-1.6045309423326526,1
2.884037652713799,225,170,1.1583966829404893,1.395175254033005,1
2.8870418586020428,224,169,-1.1549839184793742,0.23885252431538104,1
2.8900460644902863,224,170,0.5016308925821823,-0.104677844149824,1
2.89305027037853,223,170,-0.15513489777612482,-1.6045309423326526,1
2.8960544762667735,224,170,0.5016308925821823,-0.104677844149824,1
2.899058682155017,224,170,0.5016308925821823,-0.104677844149824,1
2.9020628880432606,224,169,-1.1549839184793742,0.23885252431538104,1
2.905067093931504,225,170,1.1583966829404893,1.395175254033005,1
2.9080712998197478,224,169,-1.1549839184793742,0.23885252431538104,1
2.9110755057079913,224,169,-1.1549839184793742,0.23885252431538104,1
2.914079711596235,223,170,-0.15513489777612482,-1.6045309423326526,1
2.9170839174844785,223,171,1.5014799132854315,-1.9480613107978577,1
2.920088123372722,224,170,0.5016308925821823,-0.104677844149824,1
2.9230923292609656,225,170,1.1583966829404893,1.395175254033005,1
2.9260965351492088,225,169,-0.49821812812106714,1.7387056224982098,1
2.9291007410374523,224,169,-1.1549839184793742,0.23885252431538104,1
2.932104946925696,224,169,-1.1549839184793742,0.23885252431538104,1
2.9351091528139395,223,169,-1.8117497088376815,-1.2610005738674475,1
2.938113358702183,223,171,1.5014799132854315,-1.9480613107978577,1
2.9411175645904266,225,170,1.1583966829404893,1.395175254033005,1
2.94412177047867,224,170,0.5016308925821823,-0.104677844149824,1
2.9471259763669138,224,170,0.5016308925821823,-0.104677844149824,1
2.9501301822551573,224,169,-1.1549839184793742,0.23885252431538104,1
2.953134388143401,223,170,-0.15513489777612482,-1.6045309423326526,1
2.9561385940316445,224,170,0.5016308925821823,-0.104677844149824,1
2.959142799919888,224,169,-1.1549839184793742,0.23885252431538104,1
2.9621470058081316,225,170,1.1583966829404893,1.395175254033005,1
2.965151211696375,224,170,0.5016308925821823,-0.104677844149824,1
2.9681554175846183,224,169,-1.1549839184793742,0.23885252431538104,1
2.971159623472862,224,169,-1.1549839184793742,0.23885252431538104,1
2.9741638293611055,223,170,-0.15513489777612482,-1.6045309423326526,1
2.977168035249349,224,169,-1.1549839184793742,0.23885252431538104,1
2.9801722411375926,224,169,-1.1549839184793742,0.23885252431538104,1
2.983176447025836,225,170,1.1583966829404893,1.395175254033005,1
2.9861806529140797,224,170,0.5016308925821823,-0.104677844149824,1
2.9891848588023233,224,169,-1.1549839184793742,0.23885252431538104,1
2.992189064690567,225,170,1.1583966829404893,1.395175254033005,1
2.9951932705788105,224,169,-1.1549839184793742,0.23885252431538104,1
2.998197476467054,224,169,-1.1549839184793742,0.23885252431538104,1
3.0012016823552976,223,171,1.5014799132854315,-1.9480613107978577,1
3.004205888243541,225,170,1.1583966829404893,1.395175254033005,1
3.0072100941317848,224,170,0.5016308925821823,-0.104677844149824,1
3.0102143000200283,224,170,0.5016308925821823,-0.104677844149824,1
3.0132185059082714,224,169,-1.1549839184793742,0.23885252431538104,1
3.016222711796515,223,171,1.5014799132854315,-1.9480613107978577,1
3.0192269176847586,224,170,0.5016308925821823,-0.104677844149824,1
3.022231123573002,224,169,-1.1549839184793742,0.23885252431538104,1
3.0252353294612457,225,170,1.1583966829404893,1.395175254033005,1
3.0282395353494893,224,170,0.5016308925821823,-0.104677844149824,1
3.031243741237733,224,170,0.5016308925821823,-0.104677844149824,1
3.0342479471259765,224,169,-1.1549839184793742,0.23885252431538104,1
3.03725215301422,223,171,1.5014799132854315,-1.9480613107978577,1
3.0402563589024636,223,170,-0.15513489777612482,-1.6045309423326526,1
3.043260564790707,224,170,0.5016308925821823,-0.104677844149824,1
3.0462647706789507,224,170,0.5016308925821823,-0.104677844149824,1
3.0492689765671943,225,170,1.1583966829404893,1.395175254033005,1
3.052273182455438,224,170,0.5016308925821823,-0.104677844149824,1
3.055277388343681,224,169,-1.1549839184793742,0.23885252431538104,1
3.0582815942319246,223,170,-0.15513489777612482,-1.6045309423326526,1
3.061285800120168,225,170,1.1583966829404893,1.395175254033005,1
3.0642900060084117,224,169,-1.1549839184793742,0.23885252431538104,1
3.0672942118966553,224,169,-1.1549839184793742,0.23885252431538104,1
3.070298417784899,224,169,-1.1549839184793742,0.23885252431538104,1
3.0733026236731424,225,170,1.1583966829404893,1.395175254033005,1
3.076306829561386,224,169,-1.1549839184793742,0.23885252431538104,1
3.0793110354496296,224,169,-1.1549839184793742,0.23885252431538104,1
3.082315241337873,223,170,-0.15513489777612482,-1.6045309423326526,1
3.0853194472261167,225,170,1.1583966829404893,1.395175254033005,1
3.0883236531143603,224,170,0.5016308925821823,-0.104677844149824,1
3.091327859002604,224,170,0.5016308925821823,-0.104677844149824,1
3.0943320648908474,224,170,0.5016308925821823,-0.104677844149824,1
3.097336270779091,224,169,-1.1549839184793742,0.23885252431538104,1
3.100340476667334,223,170,-0.15513489777612482,-1.6045309423326526,1
3.1033446825555777,223,171,1.5014799132854315,-1.9480613107978577,1
3.1063488884438213,224,170,0.5016308925821823,-0.104677844149824,1
3.109353094332065,224,170,0.5016308925821823,-0.104677844149824,1
3.1123573002203084,224,170,0.5016308925821823,-0.104677844149824,1
3.115361506108552,224,169,-1.1549839184793742,0.23885252431538104,1
3.1183657119967956,224,170,0.5016308925821823,-0.104677844149824,1
3.121369917885039,223,171,1.5014799132854315,-1.9480613107978577,1
3.1243741237732827,224,170,0.5016308925821823,-0.104677844149824,1
3.1273783296615263,224,169,-1.1549839184793742,0.23885252431538104,1
3.13038253554977,225,171,2.815011494002046,1.0516448855677996,1
3.1333867414380134,225,170,1.1583966829404893,1.395175254033005,1
3.136390947326257,225,170,1.1583966829404893,1.395175254033005,1
3.1393951532145006,224,169,-1.1549839184793742,0.23885252431538104,1
3.1423993591027437,224,169,-1.1549839184793742,0.23885252431538104,1
3.1454035649909873,224,169,-1.1549839184793742,0.23885252431538104,1
3.148407770879231,225,170,1.1583966829404893,1.395175254033005,1
3.1514119767674744,224,169,-1.1549839184793742,0.23885252431538104,1
3.154416182655718,225,170,1.1583966829404893,1.395175254033005,1
3.1574203885439616,225,169,-0.49821812812106714,1.7387056224982098,1
3.160424594432205,224,169,-1.1549839184793742,0.23885252431538104,1
3.1634288003204487,224,169,-1.1549839184793742,0.23885252431538104,1
3.1664330062086923,223,170,-0.15513489777612482,-1.6045309423326526,1
3.169437212096936,225,170,1.1583966829404893,1.395175254033005,1
3.1724414179851794,224,169,-1.1549839184793742,0.23885252431538104,1
3.175445623873423,224,170,0.5016308925821823,-0.104677844149824,1
3.1784498297616666,224,169,-1.1549839184793742,0.23885252431538104,1
3.18145403564991,223,170,-0.15513489777612482,-1.6045309423326526,1
3.1844582415381537,223,170,-0.15513489777612482,-1.6045309423326526,1
3.187462447426397,224,170,0.5016308925821823,-0.104677844149824,1
3.1904666533146404,224,170,0.5016308925821823,-0.104677844149824,1
3.193470859202884,225,170,1.1583966829404893,1.395175254033005,1
3.1964750650911276,224,170,0.5016308925821823,-0.104677844149824,1
3.199479270979371,224,170,0.5016308925821823,-0.104677844149824,1
3.2024834768676147,224,169,-1.1549839184793742,0.23885252431538104,1
3.2054876827558583,223,170,-0.15513489777612482,-1.6045309423326526,1
3.208491888644102,224,170,0.5016308925821823,-0.104677844149824,1
3.2114960945323454,224,169,-1.1549839184793742,0.23885252431538104,1
3.214500300420589,225,170,1.1583966829404893,1.395175254033005,1
3.2175045063088326,225,170,1.1583966829404893,1.395175254033005,1
3.220508712197076,224,169,-1.1549839184793742,0.23885252431538104,1
3.2235129180853197,224,169,-1.1549839184793742,0.23885252431538104,1
3.2265171239735633,224,169,-1.1549839184793742,0.23885252431538104,1
3.2295213298618064,223,170,-0.15513489777612482,-1.6045309423326526,1
3.23252553575005,224,170,0.5016308925821823,-0.104677844149824,1
3.2355297416382935,224,170,0.5016308925821823,-0.104677844149824,1
3.238533947526537,224,170,0.5016308925821823,-0.104677844149824,1
3.2415381534147807,224,169,-1.1549839184793742,0.23885252431538104,1
3.2445423593030243,224,169,-1.1549839184793742,0.23885252431538104,1
3.247546565191268,223,171,1.5014799132854315,-1.9480613107978577,1
3.2505507710795114,224,170,0.5016308925821823,-0.104677844149824,1
3.253554976967755,224,170,0.5016308925821823,-0.104677844149824,1
3.2565591828559985,225,170,1.1583966829404893,1.395175254033005,1
3.259563388744242,224,170,0.5016308925821823,-0.104677844149824,1
3.2625675946324857,224,170,0.5016308925821823,-0.104677844149824,1
3.2655718005207293,223,170,-0.15513489777612482,-1.6045309423326526,1
3.268576006408973,224,169,-1.1549839184793742,0.23885252431538104,1
3.271580212297216,223,170,-0.15513489777612482,-1.6045309423326526,1
3.2745844181854595,224,170,0.5016308925821823,-0.104677844149824,1
3.277588624073703,224,169,-1.1549839184793742,0.23885252431538104,1
3.2805928299619467,224,170,0.5016308925821823,-0.104677844149824,1
3.2835970358501902,224,169,-1.1549839184793742,0.23885252431538104,1
3.286601241738434,223,170,-0.15513489777612482,-1.6045309423326526,1
3.2896054476266774,223,170,-0.15513489777612482,-1.6045309423326526,1
3.292609653514921,224,170,0.5016308925821823,-0.104677844149824,1
3.2956138594031645,224,169,-1.1549839184793742,0.23885252431538104,1
3.298618065291408,225,170,1.1583966829404893,1.395175254033005,1
3.3016222711796517,224,170,0.5016308925821823,-0.104677844149824,1
3.3046264770678953,224,169,-1.1549839184793742,0.23885252431538104,1
3.307630682956139,223,170,-0.15513489777612482,-1.6045309423326526,1
3.3106348888443824,224,169,-1.1549839184793742,0.23885252431538104,1
3.313639094732626,223,170,-0.15513489777612482,-1.6045309423326526,1
3.316643300620869,224,170,0.5016308925821823,-0.104677844149824,1
3.3196475065091127,224,169,-1.1549839184793742,0.23885252431538104,1
3.3226517123973562,224,170,0.5016308925821823,-0.104677844149824,1
3.3256559182856,224,169,-1.1549839184793742,0.23885252431538104,1
3.3286601241738434,223,171,1.5014799132854315,-1.9480613107978577,1
3.331664330062087,223,171,1.5014799132854315,-1.9480613107978577,1
3.3346685359503305,223,171,1.5014799132854315,-1.9480613107978577,1
3.337672741838574,225,170,1.1583966829404893,1.395175254033005,1
3.3406769477268177,225,170,1.1583966829404893,1.395175254033005,1
3.3436811536150612,225,170,1.1583966829404893,1.395175254033005,1
3.346685359503305,224,169,-1.1549839184793742,0.23885252431538104,1
3.3496895653915484,224,169,-1.1549839184793742,0.23885252431538104,1
3.352693771279792,223,170,-0.15513489777612482,-1.6045309423326526,1
3.3556979771680355,223,171,1.5014799132854315,-1.9480613107978577,1
3.3587021830562787,225,169,-0.49821812812106714,1.7387056224982098,1
3.3617063889445222,224,170,0.5016308925821823,-0.104677844149824,1
3.364710594832766,225,170,1.1583966829404893,1.395175254033005,1
3.3677148007210094,224,169,-1.1549839184793742,0.23885252431538104,1
3.370719006609253,224,169,-1.1549839184793742,0.23885252431538104,1
3.3737232124974965,223,170,-0.15513489777612482,-1.6045309423326526,1
3.37672741838574,225,170,1.1583966829404893,1.395175254033005,1
3.3797316242739837,224,169,-1.1549839184793742,0.23885252431538104,1
3.3827358301622272,224,170,0.5016308925821823,-0.104677844149824,1
3.385740036050471,225,170,1.1583966829404893,1.395175254033005,1
3.3887442419387144,224,170,0.5016308925821823,-0.104677844149824,1
3.391748447826958,224,169,-1.1549839184793742,0.23885252431538104,1
3.3947526537152015,223,170,-0.15513489777612482,-1.6045309423326526,1
3.397756859603445,224,169,-1.1549839184793742,0.23885252431538104,1
3.4007610654916887,224,169,-1.1549839184793742,0.23885252431538104,1
3.403765271379932,224,170,0.5016308925821823,-0.104677844149824,1
3.4067694772681754,224,170,0.5016308925821823,-0.104677844149824,1
3.409773683156419,224,170,0.5016308925821823,-0.104677844149824,1
3.4127778890446625,223,170,-0.15513489777612482,-1.6045309423326526,1
3.415782094932906,224,170,0.5016308925821823,-0.104677844149824,1
3.4187863008211496,224,169,-1.1549839184793742,0.23885252431538104,1
3.421790506709393,224,169,-1.1549839184793742,0.23885252431538104,1
3.424794712597637,225,170,1.1583966829404893,1.395175254033005,1
3.4277989184858804,224,169,-1.1549839184793742,0.23885252431538104,1
3.430803124374124,224,169,-1.1549839184793742,0.23885252431538104,1
3.4338073302623675,223,170,-0.15513489777612482,-1.6045309423326526,1
3.436811536150611,223,171,1.5014799132854315,-1.9480613107978577,1
3.4398157420388547,224,170,0.5016308925821823,-0.104677844149824,1
3.4428199479270982,224,170,0.5016308925821823,-0.104677844149824,1
3.4458241538153414,224,170,0.5016308925821823,-0.104677844149824,1
3.448828359703585,225,170,1.1583966829404893,1.395175254033005,1
3.4518325655918285,224,169,-1.1549839184793742,0.23885252431538104,1
3.454836771480072,224,169,-1.1549839184793742,0.23885252431538104,1
3.4578409773683156,223,169,-1.8117497088376815,-1.2610005738674475,1
3.460845183256559,223,170,-0.15513489777612482,-1.6045309423326526,1
3.463849389144803,225,170,1.1583966829404893,1.395175254033005,1
3.4668535950330464,225,170,1.1583966829404893,1.395175254033005,1
3.46985780092129,225,169,-0.49821812812106714,1.7387056224982098,1
3.4728620068095335,224,170,0.5016308925821823,-0.104677844149824,1
3.475866212697777,224,169,-1.1549839184793742,0.23885252431538104,1
3.4788704185860206,223,170,-0.15513489777612482,-1.6045309423326526,1
3.481874624474264,223,171,1.5014799132854315,-1.9480613107978577,1
3.484878830362508,225,170,1.1583966829404893,1.395175254033005,1
3.4878830362507514,224,170,0.5016308925821823,-0.104677844149824,1
3.4908872421389945,224,170,0.5016308925821823,-0.104677844149824,1
3.493891448027238,224,169,-1.1549839184793742,0.23885252431538104,1
3.4968956539154816,223,170,-0.15513489777612482,-1.6045309423326526,1
3.499899859803725,223,170,-0.15513489777612482,-1.6045309423326526,1
3.5029040656919688,224,170,0.5016308925821823,-0.104677844149824,1
3.5059082715802123,224,170,0.5016308925821823,-0.104677844149824,1
3.508912477468456,224,169,-1.1549839184793742,0.23885252431538104,1
3.5119166833566995,224,169,-1.1549839184793742,0.23885252431538104,1
3.514920889244943,224,170,0.5016308925821823,-0.104677844149824,1
3.5179250951331866,223,170,-0.15513489777612482,-1.6045309423326526,1
3.52092930102143,224,170,0.5016308925821823,-0.104677844149824,1
3.5239335069096738,224,169,-1.1549839184793742,0.23885252431538104,1
3.5269377127979173,225,170,1.1583966829404893,1.395175254033005,1
3.529941918686161,224,169,-1.1549839184793742,0.23885252431538104,1
3.532946124574404,224,170,0.5016308925821823,-0.104677844149824,1
3.5359503304626476,224,169,-1.1549839184793742,0.23885252431538104,1
3.538954536350891,223,170,-0.15513489777612482,-1.6045309423326526,1
3.5419587422391348,223,171,1.5014799132854315,-1.9480613107978577,1
3.5449629481273783,224,170,0.5016308925821823,-0.104677844149824,1
3.547967154015622,224,169,-1.1549839184793742,0.23885252431538104,1
3.5509713599038655,224,169,-1.1549839184793742,0.23885252431538104,1
3.553975565792109,224,170,0.5016308925821823,-0.104677844149824,1
3.5569797716803526,224,170,0.5016308925821823,-0.104677844149824,1
3.559983977568596,223,169,-1.8117497088376815,-1.2610005738674475,1
3.5629881834568398,223,171,1.5014799132854315,-1.9480613107978577,1
3.5659923893450833,224,170,0.5016308925821823,-0.104677844149824,1
3.568996595233327,225,170,1.1583966829404893,1.395175254033005,1
3.5720008011215705,225,170,1.1583966829404893,1.395175254033005,1
3.5750050070098136,224,169,-1.1549839184793742,0.23885252431538104,1
3.578009212898057,224,169,-1.1549839184793742,0.23885252431538104,1
3.5810134187863008,223,170,-0.15513489777612482,-1.6045309423326526,1
3.5840176246745443,224,170,0.5016308925821823,-0.104677844149824,1
3.587021830562788,224,170,0.5016308925821823,-0.104677844149824,1
3.5900260364510315,225,170,1.1583966829404893,1.395175254033005,1
3.593030242339275,224,170,0.5016308925821823,-0.104677844149824,1
3.5960344482275186,224,169,-1.1549839184793742,0.23885252431538104,1
3.599038654115762,224,169,-1.1549839184793742,0.23885252431538104,1
3.6020428600040058,223,170,-0.15513489777612482,-1.6045309423326526,1
3.6050470658922493,224,170,0.5016308925821823,-0.104677844149824,1
3.608051271780493,224,169,-1.1549839184793742,0.23885252431538104,1
3.6110554776687365,224,169,-1.1549839184793742,0.23885252431538104,1
3.61405968355698,225,170,1.1583966829404893,1.395175254033005,1
3.6170638894452236,224,170,0.5016308925821823,-0.104677844149824,1
3.6200680953334667,224,169,-1.1549839184793742,0.23885252431538104,1
3.6230723012217103,224,169,-1.1549839184793742,0.23885252431538104,1
3.626076507109954,223,170,-0.15513489777612482,-1.6045309423326526,1
3.6290807129981975,223,171,1.5014799132854315,-1.9480613107978577,1
3.632084918886441,225,170,1.1583966829404893,1.395175254033005,1
3.6350891247746846,224,170,0.5016308925821823,-0.104677844149824,1
3.638093330662928,225,170,1.1583966829404893,1.395175254033005,1
3.6410975365511717,224,169,-1.1549839184793742,0.23885252431538104,1
3.6441017424394153,224,169,-1.1549839184793742,0.23885252431538104,1
3.647105948327659,223,171,1.5014799132854315,-1.9480613107978577,1
3.6501101542159025,225,170,1.1583966829404893,1.395175254033005,1
3.653114360104146,224,169,-1.1549839184793742,0.23885252431538104,1
3.6561185659923896,224,170,0.5016308925821823,-0.104677844149824,1
3.659122771880633,224,169,-1.1549839184793742,0.23885252431538104,1
3.6621269777688763,224,170,0.5016308925821823,-0.104677844149824,1
3.66513118365712,223,170,-0.15513489777612482,-1.6045309423326526,1
3.6681353895453634,224,170,0.5016308925821823,-0.104677844149824,1
3.671139595433607,224,169,-1.1549839184793742,0.23885252431538104,1
3.6741438013218506,225,170,1.1583966829404893,1.395175254033005,1
3.677148007210094,225,169,-0.49821812812106714,1.7387056224982098,1
3.6801522130983377,224,169,-1.1549839184793742,0.23885252431538104,1
3.6831564189865813,224,169,-1.1549839184793742,0.23885252431538104,1
3.686160624874825,224,169,-1.1549839184793742,0.23885252431538104,1
3.6891648307630684,223,170,-0.15513489777612482,-1.6045309423326526,1
3.692169036651312,223,171,1.5014799132854315,-1.9480613107978577,1
3.6951732425395556,224,170,0.5016308925821823,-0.104677844149824,1
3.698177448427799,225,170,1.1583966829404893,1.395175254033005,1
3.7011816543160427,224,170,0.5016308925821823,-0.104677844149824,1
3.7041858602042863,223,169,-1.8117497088376815,-1.2610005738674475,1
3.7071900660925294,223,170,-0.15513489777612482,-1.6045309423326526,1
3.710194271980773,224,170,0.5016308925821823,-0.104677844149824,1
3.7131984778690166,224,169,-1.1549839184793742,0.23885252431538104,1
3.71620268375726,225,170,1.1583966829404893,1.395175254033005,1
3.7192068896455037,224,170,0.5016308925821823,-0.104677844149824,1
3.7222110955337473,224,169,-1.1549839184793742,0.23885252431538104,1
3.725215301421991,224,169,-1.1549839184793742,0.23885252431538104,1
3.7282195073102344,224,169,-1.1549839184793742,0.23885252431538104,1
3.731223713198478,223,170,-0.15513489777612482,-1.6045309423326526,1
3.7342279190867216,225,170,1.1583966829404893,1.395175254033005,1
3.737232124974965,224,170,0.5016308925821823,-0.104677844149824,1
3.7402363308632087,224,170,0.5016308925821823,-0.104677844149824,1
3.7432405367514523,224,169,-1.1549839184793742,0.23885252431538104,1
3.746244742639696,224,170,0.5016308925821823,-0.104677844149824,1
3.749248948527939,223,170,-0.15513489777612482,-1.6045309423326526,1
3.7522531544161826,223,170,-0.15513489777612482,-1.6045309423326526,1
3.755257360304426,224,170,0.5016308925821823,-0.104677844149824,1
3.7582615661926697,224,170,0.5016308925821823,-0.104677844149824,1
3.7612657720809133,224,170,0.5016308925821823,-0.104677844149824,1
3.764269977969157,224,170,0.5016308925821823,-0.104677844149824,1
3.7672741838574004,223,170,-0.15513489777612482,-1.6045309423326526,1
3.770278389745644,224,170,0.5016308925821823,-0.104677844149824,1
3.7732825956338876,224,169,-1.1549839184793742,0.23885252431538104,1
3.776286801522131,225,170,1.1583966829404893,1.395175254033005,1
3.7792910074103747,224,170,0.5016308925821823,-0.104677844149824,1
3.7822952132986183,224,170,0.5016308925821823,-0.104677844149824,1
3.785299419186862,224,169,-1.1549839184793742,0.23885252431538104,1
3.7883036250751054,224,169,-1.1549839184793742,0.23885252431538104,1
3.7913078309633486,223,171,1.5014799132854315,-1.9480613107978577,1
3.794312036851592,223,170,-0.15513489777612482,-1.6045309423326526,1
3.7973162427398357,224,170,0.5016308925821823,-0.104677844149824,1
3.8003204486280793,224,170,0.5016308925821823,-0.104677844149824,1
3.803324654516323,224,170,0.5016308925821823,-0.104677844149824,1
3.8063288604045664,224,169,-1.1549839184793742,0.23885252431538104,1
3.80933306629281,223,171,1.5014799132854315,-1.9480613107978577,1
3.8123372721810536,224,170,0.5016308925821823,-0.104677844149824,1
3.815341478069297,223,170,-0.15513489777612482,-1.6045309423326526,1
3.8183456839575407,224,170,0.5016308925821823,-0.104677844149824,1
3.8213498898457843,225,170,1.1583966829404893,1.395175254033005,1
3.824354095734028,225,170,1.1583966829404893,1.395175254033005,1
3.8273583016222714,224,170,0.5016308925821823,-0.104677844149824,1
3.830362507510515,224,169,-1.1549839184793742,0.23885252431538104,1
3.8333667133987586,223,170,-0.15513489777612482,-1.6045309423326526,1
3.8363709192870017,223,171,1.5014799132854315,-1.9480613107978577,1
3.8393751251752453,225,170,1.1583966829404893,1.395175254033005,1
3.842379331063489,224,170,0.5016308925821823,-0.104677844149824,1
3.8453835369517324,225,170,1.1583966829404893,1.395175254033005,1
3.848387742839976,224,169,-1.1549839184793742,0.23885252431538104,1
3.8513919487282195,224,169,-1.1549839184793742,0.23885252431538104,1
3.854396154616463,223,171,1.5014799132854315,-1.9480613107978577,1
3.8574003605047067,224,170,0.5016308925821823,-0.104677844149824,1
3.8604045663929503,223,171,1.5014799132854315,-1.9480613107978577,1
3.863408772281194,225,170,1.1583966829404893,1.395175254033005,1
3.8664129781694374,224,169,-1.1549839184793742,0.23885252431538104,1
3.869417184057681,225,170,1.1583966829404893,1.395175254033005,1
3.8724213899459246,224,169,-1.1549839184793742,0.23885252431538104,1
3.875425595834168,224,169,-1.1549839184793742,0.23885252431538104,1
3.8784298017224113,224,170,0.5016308925821823,-0.104677844149824,1
3.881434007610655,224,169,-1.1549839184793742,0.23885252431538104,1
3.8844382134988984,224,170,0.5016308925821823,-0.104677844149824,1
3.887442419387142,225,170,1.1583966829404893,1.395175254033005,1
3.8904466252753855,224,169,-1.1549839184793742,0.23885252431538104,1
3.893450831163629,224,169,-1.1549839184793742,0.23885252431538104,1
3.8964550370518727,224,169,-1.1549839184793742,0.23885252431538104,1
3.8994592429401163,223,171,1.5014799132854315,-1.9480613107978577,1
3.90246344882836,224,170,0.5016308925821823,-0.104677844149824,1
3.9054676547166034,225,170,1.1583966829404893,1.395175254033005,1
3.908471860604847,225,170,1.1583966829404893,1.395175254033005,1
3.9114760664930905,224,170,0.5016308925821823,-0.104677844149824,1
3.914480272381334,224,169,-1.1549839184793742,0.23885252431538104,1
3.9174844782695777,224,170,0.5016308925821823,-0.104677844149824,1
3.9204886841578213,223,170,-0.15513489777612482,-1.6045309423326526,1
3.9234928900460644,224,170,0.5016308925821823,-0.104677844149824,1
3.926497095934308,224,170,0.5016308925821823,-0.104677844149824,1
3.9295013018225515,224,169,-1.1549839184793742,0.23885252431538104,1
3.932505507710795,224,170,0.5016308925821823,-0.104677844149824,1
3.9355097135990387,223,169,-1.8117497088376815,-1.2610005738674475,1
3.9385139194872822,223,170,-0.15513489777612482,-1.6045309423326526,1
3.941518125375526,224,170,0.5016308925821823,-0.104677844149824,1
3.9445223312637694,224,169,-1.1549839184793742,0.23885252431538104,1
3.947526537152013,224,170,0.5016308925821823,-0.104677844149824,1
3.9505307430402565,224,170,0.5016308925821823,-0.104677844149824,1
3.9535349489285,224,169,-1.1549839184793742,0.23885252431538104,1
3.9565391548167437,223,170,-0.15513489777612482,-1.6045309423326526,1
3.9595433607049872,223,171,1.5014799132854315,-1.9480613107978577,1
3.962547566593231,223,169,-1.8117497088376815,-1.2610005738674475,1
3.965551772481474,225,170,1.1583966829404893,1.395175254033005,1
3.9685559783697175,224,170,0.5016308925821823,-0.104677844149824,1
3.971560184257961,224,170,0.5016308925821823,-0.104677844149824,1
3.9745643901462047,225,170,1.1583966829404893,1.395175254033005,1
3.9775685960344482,224,169,-1.1549839184793742,0.23885252431538104,1
3.980572801922692,223,171,1.5014799132854315,-1.9480613107978577,1
3.9835770078109354,225,170,1.1583966829404893,1.395175254033005,1
3.986581213699179,224,169,-1.1549839184793742,0.23885252431538104,1
3.9895854195874225,224,170,0.5016308925821823,-0.104677844149824,1
3.992589625475666,224,169,-1.1549839184793742,0.23885252431538104,1
3.9955938313639097,224,170,0.5016308925821823,-0.104677844149824,1
3.9985980372521532,223,171,1.5014799132854315,-1.9480613107978577,1
4.001602243140397,224,170,0.5016308925821823,-0.104677844149824,1
4.00460644902864,224,169,-1.1549839184793742,0.23885252431538104,1
4.007610654916884,225,170,1.1583966829404893,1.395175254033005,1
4.010614860805127,224,170,0.5016308925821823,-0.104677844149824,1
4.013619066693371,224,171,2.158245703643739,-0.4482082126150291,1
4.016623272581614,224,169,-1.1549839184793742,0.23885252431538104,1
4.019627478469858,224,169,-1.1549839184793742,0.23885252431538104,1
4.022631684358101,224,169,-1.1549839184793742,0.23885252431538104,1
4.025635890246345,223,171,1.5014799132854315,-1.9480613107978577,1
4.0286400961345885,224,171,2.158245703643739,-0.4482082126150291,1
4.031644302022832,225,170,1.1583966829404893,1.395175254033005,1
4.034648507911076,225,170,1.1583966829404893,1.395175254033005,1
4.037652713799319,224,169,-1.1549839184793742,0.23885252431538104,1
4.040656919687563,224,169,-1.1549839184793742,0.23885252431538104,1
4.043661125575806,223,170,-0.15513489777612482,-1.6045309423326526,1
4.04666533146405,224,170,0.5016308925821823,-0.104677844149824,1
4.049669537352293,224,170,0.5016308925821823,-0.104677844149824,1
4.052673743240537,224,169,-1.1549839184793742,0.23885252431538104,1
4.05567794912878,224,170,0.5016308925821823,-0.104677844149824,1
4.058682155017024,224,170,0.5016308925821823,-0.104677844149824,1
4.061686360905267,223,170,-0.15513489777612482,-1.6045309423326526,1
4.064690566793511,224,170,0.5016308925821823,-0.104677844149824,1
4.0676947726817545,224,169,-1.1549839184793742,0.23885252431538104,1
4.0706989785699985,225,170,1.1583966829404893,1.395175254033005,1
4.073703184458242,224,170,0.5016308925821823,-0.104677844149824,1
4.076707390346485,224,170,0.5016308925821823,-0.104677844149824,1
4.079711596234729,224,169,-1.1549839184793742,0.23885252431538104,1
4.082715802122972,223,170,-0.15513489777612482,-1.6045309423326526,1
4.085720008011216,224,170,0.5016308925821823,-0.104677844149824,1
4.088724213899459,224,169,-1.1549839184793742,0.23885252431538104,1
4.091728419787703,224,169,-1.1549839184793742,0.23885252431538104,1
4.094732625675946,225,170,1.1583966829404893,1.395175254033005,1
4.09773683156419,224,170,0.5016308925821823,-0.104677844149824,1
4.100741037452433,224,169,-1.1549839184793742,0.23885252431538104,1
4.103745243340677,223,170,-0.15513489777612482,-1.6045309423326526,1
4.1067494492289205,223,171,1.5014799132854315,-1.9480613107978577,1
4.1097536551171645,224,170,0.5016308925821823,-0.104677844149824,1
4.112757861005408,224,170,0.5016308925821823,-0.104677844149824,1
4.115762066893652,224,170,0.5016308925821823,-0.104677844149824,1
4.118766272781895,224,169,-1.1549839184793742,0.23885252431538104,1
4.121770478670138,224,169,-1.1549839184793742,0.23885252431538104,1
4.124774684558382,223,170,-0.15513489777612482,-1.6045309423326526,1
4.127778890446625,224,170,0.5016308925821823,-0.104677844149824,1
4.130783096334869,224,170,0.5016308925821823,-0.104677844149824,1
4.133787302223112,225,170,1.1583966829404893,1.395175254033005,1
4.136791508111356,225,169,-0.49821812812106714,1.7387056224982098,1
4.139795713999599,224,170,0.5016308925821823,-0.104677844149824,1
4.142799919887843,224,168,-2.811598729540931,0.5823828927805862,1
4.1458041257760865,223,171,1.5014799132854315,-1.9480613107978577,1
4.1488083316643305,223,171,1.5014799132854315,-1.9480613107978577,1
4.151812537552574,224,170,0.5016308925821823,-0.104677844149824,1
4.154816743440818,225,170,1.1583966829404893,1.395175254033005,1
4.157820949329061,224,170,0.5016308925821823,-0.104677844149824,1
4.160825155217304,224,169,-1.1549839184793742,0.23885252431538104,1
4.163829361105548,224,169,-1.1549839184793742,0.23885252431538104,1
4.166833566993791,223,170,-0.15513489777612482,-1.6045309423326526,1
4.169837772882035,223,170,-0.15513489777612482,-1.6045309423326526,1
4.172841978770278,224,170,0.5016308925821823,-0.104677844149824,1
4.175846184658522,224,170,0.5016308925821823,-0.104677844149824,1
4.178850390546765,224,170,0.5016308925821823,-0.104677844149824,1
4.181854596435009,224,170,0.5016308925821823,-0.104677844149824,1
4.1848588023232525,224,170,0.5016308925821823,-0.104677844149824,1
4.1878630082114965,223,170,-0.15513489777612482,-1.6045309423326526,1
4.19086721409974,223,170,-0.15513489777612482,-1.6045309423326526,1
4.193871419987984,224,170,0.5016308925821823,-0.104677844149824,1
4.196875625876227,224,170,0.5016308925821823,-0.104677844149824,1
4.199879831764471,224,169,-1.1549839184793742,0.23885252431538104,1
4.202884037652714,225,170,1.1583966829404893,1.395175254033005,1
4.205888243540957,224,170,0.5016308925821823,-0.104677844149824,1
4.208892449429201,224,169,-1.1549839184793742,0.23885252431538104,1
4.211896655317444,223,171,1.5014799132854315,-1.9480613107978577,1
4.214900861205688,224,170,0.5016308925821823,-0.104677844149824,1
4.217905067093931,224,170,0.5016308925821823,-0.104677844149824,1
4.220909272982175,225,170,1.1583966829404893,1.395175254033005,1
4.2239134788704185,225,170,1.1583966829404893,1.395175254033005,1
4.2269176847586625,224,169,-1.1549839184793742,0.23885252431538104,1
4.229921890646906,224,169,-1.1549839184793742,0.23885252431538104,1
4.23292609653515,223,170,-0.15513489777612482,-1.6045309423326526,1
4.235930302423393,225,169,-0.49821812812106714,1.7387056224982098,1
4.238934508311637,224,170,0.5016308925821823,-0.104677844149824,1
4.24193871419988,224,169,-1.1549839184793742,0.23885252431538104,1
4.244942920088124,224,169,-1.1549839184793742,0.23885252431538104,1
4.247947125976367,224,169,-1.1549839184793742,0.23885252431538104,1
4.25095133186461,223,171,1.5014799132854315,-1.9480613107978577,1
4.253955537752854,223,169,-1.8117497088376815,-1.2610005738674475,1
4.256959743641097,224,170,0.5016308925821823,-0.104677844149824,1
4.259963949529341,224,170,0.5016308925821823,-0.104677844149824,1
4.2629681554175844,225,170,1.1583966829404893,1.395175254033005,1
4.2659723613058285,224,169,-1.1549839184793742,0.23885252431538104,1
4.268976567194072,224,169,-1.1549839184793742,0.23885252431538104,1
4.271980773082316,223,170,-0.15513489777612482,-1.6045309423326526,1
4.274984978970559,223,171,1.5014799132854315,-1.9480613107978577,1
4.277989184858803,225,170,1.1583966829404893,1.395175254033005,1
4.280993390747046,224,170,0.5016308925821823,-0.104677844149824,1
4.28399759663529,224,170,0.5016308925821823,-0.104677844149824,1
4.287001802523533,224,169,-1.1549839184793742,0.23885252431538104,1
4.290006008411776,224,169,-1.1549839184793742,0.23885252431538104,1
4.29301021430002,223,170,-0.15513489777612482,-1.6045309423326526,1
4.296014420188263,223,171,1.5014799132854315,-1.9480613107978577,1
4.299018626076507,224,170,0.5016308925821823,-0.104677844149824,1
4.30202283196475,224,170,0.5016308925821823,-0.104677844149824,1
4.3050270378529945,224,169,-1.1549839184793742,0.23885252431538104,1
4.308031243741238,224,169,-1.1549839184793742,0.23885252431538104,1
4.311035449629482,223,170,-0.15513489777612482,-1.6045309423326526,1
4.314039655517725,223,171,1.5014799132854315,-1.9480613107978577,1
4.317043861405969,224,170,0.5016308925821823,-0.104677844149824,1
4.320048067294212,224,169,-1.1549839184793742,0.23885252431538104,1
4.323052273182456,224,170,0.5016308925821823,-0.104677844149824,1
4.326056479070699,225,170,1.1583966829404893,1.395175254033005,1
4.329060684958943,224,170,0.5016308925821823,-0.104677844149824,1
4.332064890847186,224,169,-1.1549839184793742,0.23885252431538104,1
4.335069096735429,223,170,-0.15513489777612482,-1.6045309423326526,1
4.338073302623673,223,170,-0.15513489777612482,-1.6045309423326526,1
4.341077508511916,225,170,1.1583966829404893,1.395175254033005,1
4.34408171440016,224,170,0.5016308925821823,-0.104677844149824,1
4.347085920288404,224,170,0.5016308925821823,-0.104677844149824,1
4.350090126176648,224,169,-1.1549839184793742,0.23885252431538104,1
4.353094332064891,223,171,1.5014799132854315,-1.9480613107978577,1
4.356098537953135,223,170,-0.15513489777612482,-1.6045309423326526,1
4.359102743841378,224,170,0.5016308925821823,-0.104677844149824,1
4.362106949729622,224,170,0.5016308925821823,-0.104677844149824,1
4.365111155617865,224,169,-1.1549839184793742,0.23885252431538104,1
4.368115361506109,225,170,1.1583966829404893,1.395175254033005,1
4.371119567394352,224,169,-1.1549839184793742,0.23885252431538104,1
4.374123773282596,224,168,-2.811598729540931,0.5823828927805862,1
4.377127979170839,224,170,0.5016308925821823,-0.104677844149824,1
4.380132185059082,224,169,-1.1549839184793742,0.23885252431538104,1
4.383136390947326,225,170,1.1583966829404893,1.395175254033005,1
4.38614059683557,224,170,0.5016308925821823,-0.104677844149824,1
4.389144802723814,224,170,0.5016308925821823,-0.104677844149824,1
4.392149008612057,224,169,-1.1549839184793742,0.23885252431538104,1
4.395153214500301,224,169,-1.1549839184793742,0.23885252431538104,1
4.398157420388544,223,170,-0.15513489777612482,-1.6045309423326526,1
4.401161626276788,224,170,0.5016308925821823,-0.104677844149824,1
4.404165832165031,224,169,-1.1549839184793742,0.23885252431538104,1
4.407170038053275,225,170,1.1583966829404893,1.395175254033005,1
4.410174243941518,226,169,0.15854766223723987,3.2385587206810387,1
4.413178449829762,224,170,0.5016308925821823,-0.104677844149824,1
4.416182655718005,224,169,-1.1549839184793742,0.23885252431538104,1
4.419186861606249,223,170,-0.15513489777612482,-1.6045309423326526,1
4.422191067494492,223,170,-0.15513489777612482,-1.6045309423326526,1
4.4251952733827356,225,170,1.1583966829404893,1.395175254033005,1
4.42819947927098,224,170,0.5016308925821823,-0.104677844149824,1
4.431203685159223,224,169,-1.1549839184793742,0.23885252431538104,1
4.434207891047467,224,169,-1.1549839184793742,0.23885252431538104,1
4.43721209693571,224,169,-1.1549839184793742,0.23885252431538104,1
4.440216302823954,223,170,-0.15513489777612482,-1.6045309423326526,1
4.443220508712197,223,171,1.5014799132854315,-1.9480613107978577,1
4.446224714600441,225,170,1.1583966829404893,1.395175254033005,1
4.449228920488684,225,170,1.1583966829404893,1.395175254033005,1
4.452233126376928,225,170,1.1583966829404893,1.395175254033005,1
4.455237332265171,224,170,0.5016308925821823,-0.104677844149824,1
4.458241538153415,224,169,-1.1549839184793742,0.23885252431538104,1
4.461245744041658,223,171,1.5014799132854315,-1.9480613107978577,1
4.4642499499299015,224,169,-1.1549839184793742,0.23885252431538104,1
4.4672541558181456,224,170,0.5016308925821823,-0.104677844149824,1
4.470258361706389,224,170,0.5016308925821823,-0.104677844149824,1
4.473262567594633,224,169,-1.1549839184793742,0.23885252431538104,1
4.476266773482876,224,169,-1.1549839184793742,0.23885252431538104,1
4.47927097937112,223,169,-1.8117497088376815,-1.2610005738674475,1
4.482275185259363,223,171,1.5014799132854315,-1.9480613107978577,1
4.485279391147607,223,170,-0.15513489777612482,-1.6045309423326526,1
4.48828359703585,224,170,0.5016308925821823,-0.104677844149824,1
4.491287802924094,224,170,0.5016308925821823,-0.104677844149824,1
4.494292008812337,224,170,0.5016308925821823,-0.104677844149824,1
4.497296214700581,224,169,-1.1549839184793742,0.23885252431538104,1
4.500300420588824,223,170,-0.15513489777612482,-1.6045309423326526,1
4.503304626477068,223,171,1.5014799132854315,-1.9480613107978577,1
4.5063088323653115,224,169,-1.1549839184793742,0.23885252431538104,1
4.509313038253555,224,170,0.5016308925821823,-0.104677844149824,1
4.512317244141799,224,169,-1.1549839184793742,0.23885252431538104,1
4.515321450030042,224,170,0.5016308925821823,-0.104677844149824,1
4.518325655918286,224,169,-1.1549839184793742,0.23885252431538104,1
4.521329861806529,223,170,-0.15513489777612482,-1.6045309423326526,1
4.524334067694773,223,170,-0.15513489777612482,-1.6045309423326526,1
4.527338273583016,224,170,0.5016308925821823,-0.104677844149824,1
4.53034247947126,224,169,-1.1549839184793742,0.23885252431538104,1
4.533346685359503,225,170,1.1583966829404893,1.395175254033005,1
4.536350891247747,225,170,1.1583966829404893,1.395175254033005,1
4.53935509713599,224,169,-1.1549839184793742,0.23885252431538104,1
4.542359303024234,224,170,0.5016308925821823,-0.104677844149824,1
4.5453635089124775,223,170,-0.15513489777612482,-1.6045309423326526,1
4.5483677148007216,223,170,-0.15513489777612482,-1.6045309423326526,1
4.551371920688965,224,169,-1.1549839184793742,0.23885252431538104,1
4.554376126577208,225,170,1.1583966829404893,1.395175254033005,1
4.557380332465452,224,170,0.5016308925821823,-0.104677844149824,1
4.560384538353695,224,169,-1.1549839184793742,0.23885252431538104,1
4.563388744241939,224,170,0.5016308925821823,-0.104677844149824,1
4.566392950130182,223,170,-0.15513489777612482,-1.6045309423326526,1
4.569397156018426,224,170,0.5016308925821823,-0.104677844149824,1
4.572401361906669,224,169,-1.1549839184793742,0.23885252431538104,1
4.575405567794913,224,170,0.5016308925821823,-0.104677844149824,1
4.578409773683156,224,169,-1.1549839184793742,0.23885252431538104,1
4.5814139795714,223,170,-0.15513489777612482,-1.6045309423326526,1
4.5844181854596435,224,170,0.5016308925821823,-0.104677844149824,1
4.5874223913478875,224,169,-1.1549839184793742,0.23885252431538104,1
4.590426597236131,224,170,0.5016308925821823,-0.104677844149824,1
4.593430803124374,224,170,0.5016308925821823,-0.104677844149824,1
4.596435009012618,225,170,1.1583966829404893,1.395175254033005,1
4.599439214900861,224,170,0.5016308925821823,-0.104677844149824,1
4.602443420789105,224,169,-1.1549839184793742,0.23885252431538104,1
4.605447626677348,223,170,-0.15513489777612482,-1.6045309423326526,1
4.608451832565592,223,171,1.5014799132854315,-1.9480613107978577,1
4.611456038453835,223,171,1.5014799132854315,-1.9480613107978577,1
4.614460244342079,225,170,1.1583966829404893,1.395175254033005,1
4.617464450230322,225,170,1.1583966829404893,1.395175254033005,1
4.620468656118566,225,169,-0.49821812812106714,1.7387056224982098,1
4.6234728620068095,224,169,-1.1549839184793742,0.23885252431538104,1
4.6264770678950535,224,169,-1.1549839184793742,0.23885252431538104,1
4.629481273783297,223,170,-0.15513489777612482,-1.6045309423326526,1
4.632485479671541,224,170,0.5016308925821823,-0.104677844149824,1
4.635489685559784,224,170,0.5016308925821823,-0.104677844149824,1
4.638493891448027,224,169,-1.1549839184793742,0.23885252431538104,1
4.641498097336271,224,169,-1.1549839184793742,0.23885252431538104,1
4.644502303224514,224,170,0.5016308925821823,-0.104677844149824,1
4.647506509112758,223,171,1.5014799132854315,-1.9480613107978577,1
4.650510715001001,223,169,-1.8117497088376815,-1.2610005738674475,1
4.653514920889245,225,170,1.1583966829404893,1.395175254033005,1
4.656519126777488,224,169,-1.1549839184793742,0.23885252431538104,1
4.659523332665732,225,170,1.1583966829404893,1.395175254033005,1
4.6625275385539755,224,170,0.5016308925821823,-0.104677844149824,1
4.6655317444422195,224,169,-1.1549839184793742,0.23885252431538104,1
4.668535950330463,223,170,-0.15513489777612482,-1.6045309423326526,1
4.671540156218707,224,170,0.5016308925821823,-0.104677844149824,1
4.67454436210695,223,171,1.5014799132854315,-1.9480613107978577,1
4.677548567995194,225,170,1.1583966829404893,1.395175254033005,1
4.680552773883437,225,170,1.1583966829404893,1.395175254033005,1
4.68355697977168,224,170,0.5016308925821823,-0.104677844149824,1
4.686561185659924,224,169,-1.1549839184793742,0.23885252431538104,1
4.689565391548167,224,169,-1.1549839184793742,0.23885252431538104,1
4.692569597436411,224,169,-1.1549839184793742,0.23885252431538104,1
4.695573803324654,224,170,0.5016308925821823,-0.104677844149824,1
4.698578009212898,225,170,1.1583966829404893,1.395175254033005,1
4.7015822151011415,224,170,0.5016308925821823,-0.104677844149824,1
4.7045864209893855,224,169,-1.1549839184793742,0.23885252431538104,1
4.707590626877629,224,169,-1.1549839184793742,0.23885252431538104,1
4.710594832765873,223,170,-0.15513489777612482,-1.6045309423326526,1
4.713599038654116,223,169,-1.8117497088376815,-1.2610005738674475,1
4.71660324454236,224,170,0.5016308925821823,-0.104677844149824,1
4.719607450430603,224,169,-1.1549839184793742,0.23885252431538104,1
4.722611656318847,225,170,1.1583966829404893,1.395175254033005,1
4.72561586220709,225,170,1.1583966829404893,1.395175254033005,1
4.728620068095333,224,169,-1.1549839184793742,0.23885252431538104,1
4.731624273983577,224,169,-1.1549839184793742,0.23885252431538104,1
4.73462847987182,224,169,-1.1549839184793742,0.23885252431538104,1
4.737632685760064,225,170,1.1583966829404893,1.395175254033005,1
4.7406368916483075,224,169,-1.1549839184793742,0.23885252431538104,1
4.7436410975365515,224,170,0.5016308925821823,-0.104677844149824,1
4.746645303424795,224,169,-1.1549839184793742,0.23885252431538104,1
4.749649509313039,223,171,1.5014799132854315,-1.9480613107978577,1
4.752653715201282,223,171,1.5014799132854315,-1.9480613107978577,1
4.755657921089526,224,170,0.5016308925821823,-0.104677844149824,1
4.758662126977769,224,169,-1.1549839184793742,0.23885252431538104,1
4.761666332866013,225,170,1.1583966829404893,1.395175254033005,1
4.764670538754256,224,170,0.5016308925821823,-0.104677844149824,1
4.767674744642499,224,169,-1.1549839184793742,0.23885252431538104,1
4.770678950530743,224,169,-1.1549839184793742,0.23885252431538104,1
4.773683156418986,223,170,-0.15513489777612482,-1.6045309423326526,1
4.77668736230723,224,170,0.5016308925821823,-0.104677844149824,1
4.7796915681954735,224,169,-1.1549839184793742,0.23885252431538104,1
4.7826957740837175,224,170,0.5016308925821823,-0.104677844149824,1
4.785699979971961,225,170,1.1583966829404893,1.395175254033005,1
4.788704185860205,224,169,-1.1549839184793742,0.23885252431538104,1
4.791708391748448,225,170,1.1583966829404893,1.395175254033005,1
4.794712597636692,224,169,-1.1549839184793742,0.23885252431538104,1
4.797716803524935,224,170,0.5016308925821823,-0.104677844149824,1
4.800721009413179,225,170,1.1583966829404893,1.395175254033005,1
4.803725215301422,224,170,0.5016308925821823,-0.104677844149824,1
4.806729421189666,224,169,-1.1549839184793742,0.23885252431538104,1
4.809733627077909,224,169,-1.1549839184793742,0.23885252431538104,1
4.812737832966152,223,170,-0.15513489777612482,-1.6045309423326526,1
4.815742038854396,224,170,0.5016308925821823,-0.104677844149824,1
4.8187462447426395,224,169,-1.1549839184793742,0.23885252431538104,1
4.8217504506308835,225,170,1.1583966829404893,1.395175254033005,1
4.824754656519127,224,169,-1.1549839184793742,0.23885252431538104,1
4.827758862407371,224,170,0.5016308925821823,-0.104677844149824,1
4.830763068295614,224,169,-1.1549839184793742,0.23885252431538104,1
4.833767274183858,224,170,0.5016308925821823,-0.104677844149824,1
4.836771480072101,223,170,-0.15513489777612482,-1.6045309423326526,1
4.839775685960345,223,169,-1.8117497088376815,-1.2610005738674475,1
4.842779891848588,224,170,0.5016308925821823,-0.104677844149824,1
4.845784097736832,225,170,1.1583966829404893,1.395175254033005,1
4.848788303625075,224,170,0.5016308925821823,-0.104677844149824,1
4.851792509513319,224,169,-1.1549839184793742,0.23885252431538104,1
4.854796715401562,224,170,0.5016308925821823,-0.104677844149824,1
4.8578009212898055,223,170,-0.15513489777612482,-1.6045309423326526,1
4.8608051271780495,223,171,1.5014799132854315,-1.9480613107978577,1
4.863809333066293,225,170,1.1583966829404893,1.395175254033005,1
4.866813538954537,224,169,-1.1549839184793742,0.23885252431538104,1
4.86981774484278,224,170,0.5016308925821823,-0.104677844149824,1
4.872821950731024,224,169,-1.1549839184793742,0.23885252431538104,1
4.875826156619267,224,169,-1.1549839184793742,0.23885252431538104,1
4.878830362507511,223,170,-0.15513489777612482,-1.6045309423326526,1
4.881834568395754,224,169,-1.1549839184793742,0.23885252431538104,1
4.884838774283998,224,169,-1.1549839184793742,0.23885252431538104,1
4.887842980172241,225,170,1.1583966829404893,1.395175254033005,1
4.890847186060485,224,170,0.5016308925821823,-0.104677844149824,1
4.893851391948728,224,169,-1.1549839184793742,0.23885252431538104,1
4.896855597836971,224,169,-1.1549839184793742,0.23885252431538104,1
4.8998598037252155,223,170,-0.15513489777612482,-1.6045309423326526,1
4.902864009613459,224,170,0.5016308925821823,-0.104677844149824,1
4.905868215501703,224,170,0.5016308925821823,-0.104677844149824,1
4.908872421389946,224,169,-1.1549839184793742,0.23885252431538104,1
4.91187662727819,225,170,1.1583966829404893,1.395175254033005,1
4.914880833166433,224,169,-1.1549839184793742,0.23885252431538104,1
4.917885039054677,224,169,-1.1549839184793742,0.23885252431538104,1
4.92088924494292,224,169,-1.1549839184793742,0.23885252431538104,1
4.923893450831164,223,170,-0.15513489777612482,-1.6045309423326526,1
4.926897656719407,224,170,0.5016308925821823,-0.104677844149824,1
4.929901862607651,225,170,1.1583966829404893,1.395175254033005,1
4.932906068495894,225,170,1.1583966829404893,1.395175254033005,1
4.935910274384138,224,169,-1.1549839184793742,0.23885252431538104,1
4.9389144802723814,224,169,-1.1549839184793742,0.23885252431538104,1
4.941918686160625,224,169,-1.1549839184793742,0.23885252431538104,1
4.944922892048869,223,171,1.5014799132854315,-1.9480613107978577,1
4.947927097937112,224,170,0.5016308925821823,-0.104677844149824,1
4.950931303825356,225,170,1.1583966829404893,1.395175254033005,1
4.953935509713599,225,170,1.1583966829404893,1.395175254033005,1
4.956939715601843,224,169,-1.1549839184793742,0.23885252431538104,1
4.959943921490086,224,169,-1.1549839184793742,0.23885252431538104,1
4.96294812737833,223,170,-0.15513489777612482,-1.6045309423326526,1
4.965952333266573,225,170,1.1583966829404893,1.395175254033005,1
4.968956539154817,224,169,-1.1549839184793742,0.23885252431538104,1
4.97196074504306,224,170,0.5016308925821823,-0.104677844149824,1
4.974964950931304,225,170,1.1583966829404893,1.395175254033005,1
4.977969156819547,224,170,0.5016308925821823,-0.104677844149824,1
4.9809733627077915,224,169,-1.1549839184793742,0.23885252431538104,1
4.983977568596035,224,169,-1.1549839184793742,0.23885252431538104,1
4.986981774484278,223,170,-0.15513489777612482,-1.6045309423326526,1
4.989985980372522,225,170,1.1583966829404893,1.395175254033005,1
4.992990186260765,225,170,1.1583966829404893,1.395175254033005,1
4.995994392149009,225,169,-0.49821812812106714,1.7387056224982098,1
4.998998598037252,224,170,0.5016308925821823,-0.104677844149824,1
5.002002803925496,224,169,-1.1549839184793742,0.23885252431538104,1
5.005007009813739,224,169,-1.1549839184793742,0.23885252431538104,1
5.008011215701983,224,169,-1.1549839184793742,0.23885252431538104,1
5.011015421590226,225,170,1.1583966829404893,1.395175254033005,1
5.01401962747847,224,170,0.5016308925821823,-0.104677844149824,1
5.017023833366713,224,170,0.5016308925821823,-0.104677844149824,1
5.020028039254957,224,169,-1.1549839184793742,0.23885252431538104,1
5.023032245143201,223,171,1.5014799132854315,-1.9480613107978577,1
5.026036451031445,224,170,0.5016308925821823,-0.104677844149824,1
5.029040656919688,224,169,-1.1549839184793742,0.23885252431538104,1
5.032044862807931,225,170,1.1583966829404893,1.395175254033005,1
5.035049068696175,224,169,-1.1549839184793742,0.23885252431538104,1
5.038053274584418,224,170,0.5016308925821823,-0.104677844149824,1
5.041057480472662,224,169,-1.1549839184793742,0.23885252431538104,1
5.044061686360905,223,170,-0.15513489777612482,-1.6045309423326526,1
5.047065892249149,224,170,0.5016308925821823,-0.104677844149824,1
5.050070098137392,224,169,-1.1549839184793742,0.23885252431538104,1
5.053074304025636,225,170,1.1583966829404893,1.395175254033005,1
5.056078509913879,225,170,1.1583966829404893,1.395175254033005,1
5.059082715802123,225,170,1.1583966829404893,1.395175254033005,1
5.062086921690367,224,169,-1.1549839184793742,0.23885252431538104,1
5.065091127578611,223,170,-0.15513489777612482,-1.6045309423326526,1
5.068095333466854,224,169,-1.1549839184793742,0.23885252431538104,1
5.071099539355097,224,170,0.5016308925821823,-0.104677844149824,1
5.074103745243341,224,169,-1.1549839184793742,0.23885252431538104,1
5.077107951131584,225,170,1.1583966829404893,1.395175254033005,1
5.080112157019828,224,169,-1.1549839184793742,0.23885252431538104,1
5.083116362908071,224,169,-1.1549839184793742,0.23885252431538104,1
5.086120568796315,223,170,-0.15513489777612482,-1.6045309423326526,1
5.089124774684558,223,170,-0.15513489777612482,-1.6045309423326526,1
5.092128980572802,225,170,1.1583966829404893,1.395175254033005,1
5.095133186461045,224,170,0.5016308925821823,-0.104677844149824,1
5.098137392349289,224,170,0.5016308925821823,-0.104677844149824,1
5.1011415982375325,224,170,0.5016308925821823,-0.104677844149824,1
5.104145804125777,224,169,-1.1549839184793742,0.23885252431538104,1
5.10715001001402,223,170,-0.15513489777612482,-1.6045309423326526,1
5.110154215902264,223,171,1.5014799132854315,-1.9480613107978577,1
5.113158421790507,224,170,0.5016308925821823,-0.104677844149824,1
5.11616262767875,224,170,0.5016308925821823,-0.104677844149824,1
5.119166833566994,224,170,0.5016308925821823,-0.104677844149824,1
5.122171039455237,224,169,-1.1549839184793742,0.23885252431538104,1
5.125175245343481,224,169,-1.1549839184793742,0.23885252431538104,1
5.128179451231724,223,171,1.5014799132854315,-1.9480613107978577,1
5.131183657119968,223,170,-0.15513489777612482,-1.6045309423326526,1
5.134187863008211,224,170,0.5016308925821823,-0.104677844149824,1
5.137192068896455,224,170,0.5016308925821823,-0.104677844149824,1
5.1401962747846985,224,170,0.5016308925821823,-0.104677844149824,1
5.1432004806729426,224,169,-1.1549839184793742,0.23885252431538104,1
5.146204686561186,224,170,0.5016308925821823,-0.104677844149824,1
5.14920889244943,223,170,-0.15513489777612482,-1.6045309423326526,1
5.152213098337673,223,171,1.5014799132854315,-1.9480613107978577,1
5.155217304225917,224,170,0.5016308925821823,-0.104677844149824,1
5.15822151011416,224,169,-1.1549839184793742,0.23885252431538104,1
5.161225716002403,225,170,1.1583966829404893,1.395175254033005,1
5.164229921890647,224,170,0.5016308925821823,-0.104677844149824,1
5.16723412777889,224,169,-1.1549839184793742,0.23885252431538104,1
5.170238333667134,224,169,-1.1549839184793742,0.23885252431538104,1
5.173242539555377,223,170,-0.15513489777612482,-1.6045309423326526,1
5.176246745443621,225,170,1.1583966829404893,1.395175254033005,1
5.1792509513318645,224,169,-1.1549839184793742,0.23885252431538104,1
5.1822551572201085,224,170,0.5016308925821823,-0.104677844149824,1
5.185259363108352,224,169,-1.1549839184793742,0.23885252431538104,1
5.188263568996596,224,170,0.5016308925821823,-0.104677844149824,1
5.191267774884839,223,170,-0.15513489777612482,-1.6045309423326526,1
5.194271980773083,223,171,1.5014799132854315,-1.9480613107978577,1
5.197276186661326,224,170,0.5016308925821823,-0.104677844149824,1
5.200280392549569,225,169,-0.49821812812106714,1.7387056224982098,1
5.203284598437813,224,170,0.5016308925821823,-0.104677844149824,1
5.206288804326056,224,169,-1.1549839184793742,0.23885252431538104,1
5.2092930102143,224,169,-1.1549839184793742,0.23885252431538104,1
5.212297216102543,224,169,-1.1549839184793742,0.23885252431538104,1
5.215301421990787,223,171,1.5014799132854315,-1.9480613107978577,1
5.2183056278790305,224,170,0.5016308925821823,-0.104677844149824,1
5.2213098337672745,224,170,0.5016308925821823,-0.104677844149824,1
5.224314039655518,224,170,0.5016308925821823,-0.104677844149824,1
5.227318245543762,224,169,-1.1549839184793742,0.23885252431538104,1
5.230322451432005,223,170,-0.15513489777612482,-1.6045309423326526,1
5.233326657320249,224,170,0.5016308925821823,-0.104677844149824,1
5.236330863208492,224,169,-1.1549839184793742,0.23885252431538104,1
5.239335069096736,224,169,-1.1549839184793742,0.23885252431538104,1
5.242339274984979,224,170,0.5016308925821823,-0.104677844149824,1
5.245343480873222,224,170,0.5016308925821823,-0.104677844149824,1
5.248347686761466,225,170,1.1583966829404893,1.395175254033005,1
5.251351892649709,224,169,-1.1549839184793742,0.23885252431538104,1
5.254356098537953,224,169,-1.1549839184793742,0.23885252431538104,1
5.2573603044261965,223,170,-0.15513489777612482,-1.6045309423326526,1
5.2603645103144405,223,171,1.5014799132854315,-1.9480613107978577,1
5.263368716202684,224,170,0.5016308925821823,-0.104677844149824,1
5.266372922090928,225,170,1.1583966829404893,1.395175254033005,1
5.269377127979171,224,170,0.5016308925821823,-0.104677844149824,1
5.272381333867415,224,169,-1.1549839184793742,0.23885252431538104,1
5.275385539755658,223,171,1.5014799132854315,-1.9480613107978577,1
5.278389745643902,223,171,1.5014799132854315,-1.9480613107978577,1
5.281393951532145,225,170,1.1583966829404893,1.395175254033005,1
5.284398157420389,224,170,0.5016308925821823,-0.104677844149824,1
5.287402363308632,224,170,0.5016308925821823,-0.104677844149824,1
5.290406569196875,224,170,0.5016308925821823,-0.104677844149824,1
5.293410775085119,224,169,-1.1549839184793742,0.23885252431538104,1
5.2964149809733625,223,169,-1.8117497088376815,-1.2610005738674475,1
5.2994191868616065,225,170,1.1583966829404893,1.395175254033005,1
5.30242339274985,224,169,-1.1549839184793742,0.23885252431538104,1
5.305427598638094,225,170,1.1583966829404893,1.395175254033005,1
5.308431804526337,225,170,1.1583966829404893,1.395175254033005,1
5.311436010414581,225,170,1.1583966829404893,1.395175254033005,1
5.314440216302824,224,169,-1.1549839184793742,0.23885252431538104,1
5.317444422191068,224,169,-1.1549839184793742,0.23885252431538104,1
5.320448628079311,223,171,1.5014799132854315,-1.9480613107978577,1
5.323452833967555,224,170,0.5016308925821823,-0.104677844149824,1
5.326457039855798,225,170,1.1583966829404893,1.395175254033005,1
5.329461245744041,225,170,1.1583966829404893,1.395175254033005,1
5.332465451632285,225,170,1.1583966829404893,1.395175254033005,1
